RES_NUM,AMINO_ACID,A,C,D,E,F,G,H,I,K,L,M,N,P,Q,R,S,T,V,W,Y
1,M,0.0,0.0,0.0,0.0,0.0,0.0,0.0,0.0,0.0,0.0,1.0,0.0,0.0,0.0,0.0,0.0,0.0,0.0,0.0,0.0
2,D,0.0,0.0,0.803806722164154,0.09663250297307968,0.0,0.09956075996160507,0.0,0.0,0.0,0.0,0.0,0.0,0.0,0.0,0.0,0.0,0.0,0.0,0.0,0.0
3,T,0.35431918501853943,0.0,0.0,0.0,0.0,0.19619326293468475,0.0,0.0,0.0,0.0,0.0,0.0,0.0,0.0,0.0,0.0,0.449487566947937,0.0,0.0,0.0
4,I,0.0,0.0,0.0,0.0,0.0,0.0,0.0,0.8462664484977722,0.0,0.0,0.0,0.0,0.0,0.0,0.0,0.0,0.0,0.0,0.0,0.1537335216999054
5,A,0.6286126971244812,0.0,0.0,0.0,0.0,0.0,0.0,0.0,0.0,0.0,0.0,0.0,0.0,0.0,0.0202312134206295,0.005780346691608429,0.1517340987920761,0.0,0.0,0.19364161789417267
6,A,1.0,0.0,0.0,0.0,0.0,0.0,0.0,0.0,0.0,0.0,0.0,0.0,0.0,0.0,0.0,0.0,0.0,0.0,0.0,0.0
7,R,0.0,0.0,0.0,0.0,0.0,0.0,0.0,0.0,0.0,0.0,0.0,0.0,0.0,0.0,1.0,0.0,0.0,0.0,0.0,0.0
8,A,0.903954803943634,0.0,0.0,0.0,0.0,0.0,0.0,0.0,0.0,0.0,0.0,0.0,0.0,0.0,0.0,0.0,0.09604519605636597,0.0,0.0,0.0
9,L,0.0,0.0,0.0,0.0,0.1874125897884369,0.0,0.0,0.0,0.0,0.8125874400138855,0.0,0.0,0.0,0.0,0.0,0.0,0.0,0.0,0.0,0.0
10,T,0.0,0.1874125897884369,0.0,0.0,0.0,0.0,0.0,0.0,0.0,0.0,0.0,0.0,0.0,0.0,0.0097902100533247,0.3384615480899811,0.4559440612792969,0.0,0.0,0.008391608484089375
11,V,0.0,0.0,0.0,0.0,0.0,0.0,0.0,0.0,0.0,0.0,0.0,0.0,0.0,0.0,0.0,0.0,0.0,0.8125874400138855,0.0,0.1874125897884369
12,M,0.0,0.0,0.0,0.0,0.0,0.0,0.0,0.20949721336364746,0.0,0.333798885345459,0.32821229100227356,0.0,0.0,0.0,0.0,0.0,0.0,0.1284916251897812,0.0,0.0
13,R,0.0,0.0,0.0,0.3966480493545532,0.0,0.0,0.0,0.0,0.14664804935455322,0.0,0.0,0.0,0.0,0.0,0.45670390129089355,0.0,0.0,0.0,0.0,0.0
14,A,0.6236110925674438,0.18611110746860504,0.0,0.0,0.0,0.1458333283662796,0.008333333767950535,0.0,0.0,0.0,0.0,0.0,0.0,0.0,0.0,0.02916666679084301,0.0,0.0069444444961845875,0.0,0.0
15,C,0.0,0.659248948097229,0.0,0.0,0.0,0.0,0.0,0.0,0.0,0.3324061334133148,0.0,0.0,0.0,0.0,0.0,0.0,0.0,0.00834492314606905,0.0,0.0
16,A,0.5972222089767456,0.0,0.0,0.0,0.0,0.0,0.0,0.0,0.0,0.0,0.0,0.1458333283662796,0.008333333767950535,0.0,0.0,0.0,0.0625,0.18611110746860504,0.0,0.0
17,T,0.006934812758117914,0.0,0.0,0.0,0.0,0.0,0.008321775123476982,0.1456310749053955,0.0,0.0,0.0,0.0,0.0,0.0,0.0,0.21636615693569183,0.6227461695671082,0.0,0.0,0.0
18,L,0.0,0.0,0.0,0.0,0.0,0.0,0.02920723147690296,0.0,0.0,0.510431170463562,0.0,0.18636995553970337,0.0,0.0,0.0,0.14603616297245026,0.0,0.12795549631118774,0.0,0.0
19,Q,0.0,0.0,0.0,0.0,0.0,0.14603616297245026,0.0,0.0,0.14603616297245026,0.02920723147690296,0.0,0.0,0.0,0.30180805921554565,0.18636995553970337,0.0,0.12795549631118774,0.06258692592382431,0.0,0.0
20,E,0.0,0.0,0.5813630223274231,0.4186370074748993,0.0,0.0,0.0,0.0,0.0,0.0,0.0,0.0,0.0,0.0,0.0,0.0,0.0,0.0,0.0,0.0
21,A,0.4589707851409912,0.0,0.0,0.0,0.0,0.0,0.0,0.0,0.0,0.0,0.0,0.0,0.3324061334133148,0.0,0.0,0.06258692592382431,0.0,0.14603616297245026,0.0,0.0
22,R,0.0,0.0,0.0,0.0,0.0,0.0,0.0,0.0,0.0,0.0,0.0,0.0,0.0,0.0,0.9707927703857422,0.0,0.0,0.0,0.0,0.02920723147690296
23,I,0.18636995553970337,0.0,0.0,0.0,0.0,0.0,0.0,0.4478442370891571,0.0,0.0,0.0,0.0,0.0,0.0,0.0,0.17524339258670807,0.0,0.19054241478443146,0.0,0.0
24,V,0.0,0.0,0.0,0.0,0.0,0.0,0.14603616297245026,0.0,0.0,0.0,0.0,0.0,0.0,0.0,0.18636995553970337,0.19054241478443146,0.0,0.4770514667034149,0.0,0.0
25,L,0.0,0.0,0.0,0.0,0.0,0.0,0.0,0.0,0.0,0.42420026659965515,0.06258692592382431,0.0,0.0,0.005563282407820225,0.3324061334133148,0.02920723147690296,0.0,0.14603616297245026,0.0,0.0
26,E,0.0,0.0,0.3365785777568817,0.4770514667034149,0.0,0.0,0.0,0.0,0.0,0.0,0.0,0.0,0.0,0.0,0.0,0.0,0.18636995553970337,0.0,0.0,0.0
27,A,0.32406118512153625,0.0,0.0,0.0,0.18636995553970337,0.0,0.0,0.0,0.0,0.0,0.0,0.0,0.3435326814651489,0.0,0.0,0.14603616297245026,0.0,0.0,0.0,0.0
28,N,0.0,0.0,0.0,0.0,0.0,0.19054241478443146,0.0,0.0,0.0,0.09457580000162125,0.0,0.4770514667034149,0.0,0.09179415553808212,0.0,0.0,0.14603616297245026,0.0,0.0,0.0
29,V,0.0,0.0,0.0,0.0,0.0,0.0,0.0,0.0,0.0,0.0,0.0,0.0,0.18636995553970337,0.0,0.0,0.0,0.14603616297245026,0.6675938963890076,0.0,0.0
30,M,0.0,0.0,0.0,0.1458333283662796,0.0,0.0,0.0,0.0,0.0,0.1458333283662796,0.5222222208976746,0.0,0.0,0.0,0.0,0.18611110746860504,0.0,0.0,0.0,0.0
31,E,0.14603616297245026,0.0,0.18636995553970337,0.6675938963890076,0.0,0.0,0.0,0.0,0.0,0.0,0.0,0.0,0.0,0.0,0.0,0.0,0.0,0.0,0.0,0.0
32,I,0.0,0.0,0.0,0.0,0.0,0.18636995553970337,0.0,0.4770514667034149,0.0,0.06258692592382431,0.0,0.0,0.0,0.0,0.0,0.0,0.2739916443824768,0.0,0.0,0.0
33,L,0.0,0.0,0.0,0.0,0.18636995553970337,0.0,0.0,0.0,0.0,0.6675938963890076,0.14603616297245026,0.0,0.0,0.0,0.0,0.0,0.0,0.0,0.0,0.0
34,G,0.09179415553808212,0.0,0.0,0.0,0.0,0.6675938963890076,0.0,0.0,0.0,0.0,0.0,0.0,0.09457580000162125,0.0,0.0,0.14603616297245026,0.0,0.0,0.0,0.0
35,I,0.0,0.0,0.0,0.0,0.0,0.0,0.0,0.8038942813873291,0.0,0.18636995553970337,0.0,0.0,0.0,0.0,0.0,0.0,0.009735744446516037,0.0,0.0,0.0
36,A,0.6675938963890076,0.0,0.0,0.0,0.3324061334133148,0.0,0.0,0.0,0.0,0.0,0.0,0.0,0.0,0.0,0.0,0.0,0.0,0.0,0.0,0.0
37,I,0.14603616297245026,0.0,0.0,0.0,0.0,0.0,0.0,0.5757997035980225,0.0,0.06258692592382431,0.0,0.0,0.0,0.0,0.0,0.0,0.0,0.21557718515396118,0.0,0.0
38,N,0.0,0.0,0.0,0.0,0.0,0.0,0.0,0.0,0.0,0.0,0.14603616297245026,0.6675938963890076,0.0,0.0,0.0,0.0,0.18636995553970337,0.0,0.0,0.0
39,R,0.0,0.0,0.0,0.0,0.0,0.0,0.0,0.0,0.0,0.0,0.0,0.0,0.0,0.0,1.0,0.0,0.0,0.0,0.0,0.0
40,Y,0.0,0.0,0.0,0.0,0.3324061334133148,0.0,0.0,0.0,0.0,0.0,0.0,0.0,0.0,0.0,0.0,0.0,0.0,0.0,0.0,0.6675938963890076
41,N,0.0,0.0,0.0,0.0,0.0,0.0,0.0,0.0,0.0,0.0,0.0,1.0,0.0,0.0,0.0,0.0,0.0,0.0,0.0,0.0
42,G,0.24895688891410828,0.0,0.0,0.0,0.0,0.6050069332122803,0.0,0.0,0.0,0.0,0.0,0.0,0.0,0.0,0.0,0.14603616297245026,0.0,0.0,0.0,0.0
43,L,0.0,0.0,0.0,0.0,0.0,0.0,0.0,0.0,0.0,0.6050069332122803,0.06258692592382431,0.0,0.0,0.0,0.0,0.0,0.3324061334133148,0.0,0.0,0.0
44,T,0.0,0.0,0.0,0.0,0.0,0.0,0.0,0.0,0.0,0.0,0.0,0.0,0.0,0.0,0.0,0.06258692592382431,0.9374130964279175,0.0,0.0,0.0
45,L,0.0,0.0,0.09179415553808212,0.0,0.0,0.0,0.0,0.0,0.0,0.5396384000778198,0.0,0.2225312888622284,0.0,0.0,0.0,0.14603616297245026,0.0,0.0,0.0,0.0
46,R,0.0,0.0,0.0,0.0,0.0,0.0,0.12777778506278992,0.0,0.0,0.0,0.0,0.0,0.0,0.0,0.8722222447395325,0.0,0.0,0.0,0.0,0.0
47,G,0.0,0.0,0.0,0.0,0.0,0.39499303698539734,0.0,0.0,0.0,0.0,0.0,0.0,0.3324061334133148,0.0,0.0,0.27260082960128784,0.0,0.0,0.0,0.0
48,V,0.0,0.0,0.0,0.0,0.0,0.0,0.0,0.18636995553970337,0.0,0.0,0.0,0.0,0.0,0.0,0.0,0.0,0.0,0.8136300444602966,0.0,0.0
49,T,0.0,0.0,0.0,0.0,0.0,0.0,0.0,0.0,0.0,0.0,0.15416666865348816,0.0,0.0,0.0,0.0,0.21944443881511688,0.6263889074325562,0.0,0.0,0.0
50,M,0.0,0.0,0.0,0.0,0.0,0.14603616297245026,0.0,0.0,0.0,0.0,0.6675938963890076,0.0,0.0,0.18636995553970337,0.0,0.0,0.0,0.0,0.0,0.0
51,R,0.0,0.0,0.0,0.0,0.0,0.0,0.0,0.0,0.0,0.0,0.0,0.0,0.0,0.0,0.8136300444602966,0.0,0.18636995553970337,0.0,0.0,0.0
52,P,0.0,0.0,0.0,0.0,0.0,0.0,0.0,0.0,0.0,0.0,0.0,0.0,1.0,0.0,0.0,0.0,0.0,0.0,0.0,0.0
53,T,0.0,0.0,0.0,0.0,0.0,0.0,0.0,0.0,0.0,0.0,0.0,0.0,0.0,0.2739916443824768,0.0,0.18636995553970337,0.5396384000778198,0.0,0.0,0.0
54,S,0.0,0.0,0.0,0.0,0.0,0.0,0.0,0.0,0.0,0.0,0.0,0.0,0.0,0.0,0.14603616297245026,0.4770514667034149,0.376912385225296,0.0,0.0,0.0
55,L,0.0,0.0,0.0,0.0,0.0,0.0,0.0,0.0,0.0,0.35504886507987976,0.0,0.0,0.11074918508529663,0.534201979637146,0.0,0.0,0.0,0.0,0.0,0.0
56,A,0.4589707851409912,0.0,0.1001390814781189,0.23226703703403473,0.0,0.14603616297245026,0.0,0.0,0.0,0.0,0.0,0.0,0.0,0.06258692592382431,0.0,0.0,0.0,0.0,0.0,0.0
57,Q,0.0,0.0,0.0,0.376912385225296,0.0,0.0,0.0,0.0,0.14603616297245026,0.0,0.0,0.0,0.0,0.4770514667034149,0.0,0.0,0.0,0.0,0.0,0.0
58,R,0.0,0.0,0.0,0.0,0.0,0.0,0.18636995553970337,0.0,0.02920723147690296,0.0,0.0,0.0,0.0,0.0,0.7844228148460388,0.0,0.0,0.0,0.0,0.0
59,N,0.0,0.0,0.0,0.0,0.0,0.14603616297245026,0.0,0.0,0.0,0.0,0.0,0.6675938963890076,0.0,0.0,0.18636995553970337,0.0,0.0,0.0,0.0,0.0
60,E,0.09457580000162125,0.0,0.09179415553808212,0.5757997035980225,0.0,0.0,0.0,0.0,0.0,0.0,0.0,0.0,0.0,0.0,0.0,0.09179415553808212,0.0,0.14603616297245026,0.0,0.0
61,M,0.0,0.18636995553970337,0.0,0.0,0.0,0.0,0.0,0.14603616297245026,0.0,0.0,0.6509040594100952,0.0,0.0,0.0,0.0,0.0,0.0166898462921381,0.0,0.0,0.0
62,F,0.0,0.0,0.0,0.0,0.8539638519287109,0.0,0.0,0.0,0.0,0.0,0.0,0.0,0.0,0.0,0.0,0.0,0.14603616297245026,0.0,0.0,0.0
63,F,0.0,0.0,0.0,0.0,0.6244784593582153,0.0,0.0,0.0,0.0,0.005563282407820225,0.0,0.0,0.0,0.0,0.0,0.14603616297245026,0.0,0.0,0.0,0.22392211854457855
64,M,0.18636995553970337,0.0,0.0,0.0,0.0,0.0,0.0,0.0,0.0,0.0,0.659248948097229,0.0,0.0,0.0,0.0,0.0,0.15438108146190643,0.0,0.0,0.0
65,C,0.09457580000162125,0.6675938963890076,0.0,0.0,0.0,0.09179415553808212,0.0,0.0,0.0,0.0,0.0,0.0,0.14603616297245026,0.0,0.0,0.0,0.0,0.0,0.0,0.0
66,L,0.0,0.0,0.0,0.0,0.0,0.0,0.0,0.0,0.0,0.6634213924407959,0.0,0.0,0.0,0.14603616297245026,0.0,0.0,0.12795549631118774,0.06258692592382431,0.0,0.0
67,D,0.0,0.0,0.8539638519287109,0.0,0.0,0.0,0.0,0.0,0.0,0.0,0.0,0.0,0.0,0.0,0.14603616297245026,0.0,0.0,0.0,0.0,0.0
68,M,0.0,0.14603616297245026,0.0,0.0,0.0,0.0,0.0,0.0,0.0,0.19471488893032074,0.659248948097229,0.0,0.0,0.0,0.0,0.0,0.0,0.0,0.0,0.0
69,M,0.0,0.0,0.0,0.0,0.0,0.1458333283662796,0.0,0.03750000149011612,0.0,0.09444444626569748,0.3263888955116272,0.0,0.0,0.0,0.0,0.0,0.10277777910232544,0.29305556416511536,0.0,0.0
70,L,0.0,0.0,0.0,0.0,0.0,0.0,0.0,0.30416667461395264,0.0,0.6888889074325562,0.0,0.0,0.0,0.0,0.0,0.0,0.0,0.0069444444961845875,0.0,0.0
71,S,0.3157162666320801,0.0,0.0,0.0,0.0,0.18636995553970337,0.0,0.0,0.0,0.0,0.0,0.0,0.0,0.0,0.14603616297245026,0.3324061334133148,0.019471488893032074,0.0,0.0,0.0
72,A,0.8539638519287109,0.0,0.14603616297245026,0.0,0.0,0.0,0.0,0.0,0.0,0.0,0.0,0.0,0.0,0.0,0.0,0.0,0.0,0.0,0.0,0.0
73,A,0.4652777910232544,0.0,0.0,0.0,0.0,0.0,0.0,0.0,0.0,0.4277777671813965,0.0,0.0,0.0,0.0,0.0,0.0,0.10694444179534912,0.0,0.0,0.0
74,G,0.0,0.0,0.0,0.14603616297245026,0.0,0.5813630223274231,0.0,0.0,0.0,0.0,0.0,0.27260082960128784,0.0,0.0,0.0,0.0,0.0,0.0,0.0,0.0
75,I,0.0,0.0,0.0,0.0,0.0,0.0,0.1458333283662796,0.5805555582046509,0.0,0.1458333283662796,0.0,0.0,0.0,0.0,0.0,0.0,0.0,0.12777778506278992,0.0,0.0
76,N,0.0,0.0,0.0,0.0,0.0,0.0,0.14603616297245026,0.0,0.0,0.0,0.0,0.6550765037536621,0.0,0.19054241478443146,0.0,0.00834492314606905,0.0,0.0,0.0,0.0
77,V,0.0,0.0,0.0,0.0,0.18611110746860504,0.0,0.0,0.21666666865348816,0.0,0.02916666679084301,0.013888888992369175,0.0,0.0,0.0,0.0,0.0,0.0,0.5541666746139526,0.0,0.0
78,G,0.14603616297245026,0.0,0.0,0.0,0.0,0.6675938963890076,0.0,0.0,0.0,0.0,0.0,0.18636995553970337,0.0,0.0,0.0,0.0,0.0,0.0,0.0,0.0
79,P,0.0,0.0,0.0,0.0,0.1458333283662796,0.0,0.0,0.0,0.0,0.0,0.0,0.3361110985279083,0.33194443583488464,0.0,0.0,0.0,0.0,0.0,0.0,0.18611110746860504
80,I,0.0,0.0,0.0,0.0,0.0,0.0,0.0,0.6189151406288147,0.0,0.0,0.0,0.09179415553808212,0.0,0.0,0.09457580000162125,0.0,0.0,0.19471488893032074,0.0,0.0
81,S,0.0,0.0,0.0,0.0,0.0,0.0,0.0,0.0,0.0,0.18636995553970337,0.14603616297245026,0.0,0.0,0.0,0.0,0.6675938963890076,0.0,0.0,0.0,0.0
82,P,0.0,0.0,0.0,0.0,0.0,0.0,0.0,0.0,0.0,0.0,0.0,0.0,0.9305555820465088,0.0625,0.0069444444961845875,0.0,0.0,0.0,0.0,0.0
83,D,0.0,0.0,0.6050069332122803,0.09457580000162125,0.0,0.23783032596111298,0.0,0.0,0.0,0.0,0.0,0.0,0.0,0.0,0.0,0.0,0.06258692592382431,0.0,0.0,0.0
84,Y,0.0,0.0,0.0,0.0,0.0,0.0,0.0,0.0,0.0,0.0,0.0,0.0,0.0,0.0,0.0,0.0,0.0,0.0,0.0,1.0
85,T,0.00834492314606905,0.0,0.12795549631118774,0.0,0.0,0.0,0.0,0.2920723259449005,0.0,0.0,0.0,0.0,0.0,0.02920723147690296,0.06258692592382431,0.09457580000162125,0.3852573037147522,0.0,0.0,0.0
86,Q,0.0,0.0,0.0,0.0,0.0,0.0,0.0,0.0,0.0,0.0,0.0,0.0,0.24895688891410828,0.7510431408882141,0.0,0.0,0.0,0.0,0.0,0.0
87,H,0.12777778506278992,0.0,0.0,0.0,0.0,0.0,0.33194443583488464,0.0,0.0,0.0,0.0,0.47777777910232544,0.0,0.0,0.0,0.0625,0.0,0.0,0.0,0.0
88,M,0.0,0.0,0.0,0.0,0.01310615986585617,0.0,0.0,0.0,0.0,0.2450851947069168,0.4285714328289032,0.0,0.1376146823167801,0.0,0.0,0.0,0.0,0.17562253773212433,0.0,0.0
89,A,0.6592398285865784,0.0,0.0,0.0,0.0,0.027522936463356018,0.0,0.0,0.0,0.0,0.0,0.0,0.0,0.3132372200489044,0.0,0.0,0.0,0.0,0.0,0.0
90,T,0.0,0.0,0.0,0.0,0.0,0.0,0.0,0.08661417663097382,0.0,0.0,0.0,0.0,0.0,0.0,0.0,0.0,0.8241469860076904,0.08923884481191635,0.0,0.0
91,I,0.0,0.0,0.0,0.0,0.0,0.0,0.0,0.5590550899505615,0.0,0.3136482834815979,0.0,0.0,0.0,0.0,0.0,0.0,0.006561679765582085,0.12073490768671036,0.0,0.0
92,G,0.13779526948928833,0.0,0.0,0.0,0.0,0.6863517165184021,0.0,0.0,0.0,0.0,0.0,0.0,0.0,0.0,0.0,0.17585301399230957,0.0,0.0,0.0,0.0
93,V,0.23622047901153564,0.0,0.0,0.0,0.0,0.0,0.0,0.3136482834815979,0.0,0.0,0.0,0.0,0.0,0.0,0.0,0.0,0.0,0.45013123750686646,0.0,0.0
94,L,0.0,0.0,0.0,0.0,0.0,0.0,0.0,0.0,0.0,0.9868938326835632,0.0,0.0,0.0,0.0,0.0,0.01310615986585617,0.0,0.0,0.0,0.0
95,A,1.0,0.0,0.0,0.0,0.0,0.0,0.0,0.0,0.0,0.0,0.0,0.0,0.0,0.0,0.0,0.0,0.0,0.0,0.0,0.0
96,T,0.0,0.0,0.0,0.0,0.0,0.0,0.0,0.0,0.0,0.0,0.0,0.0,0.0,0.0,0.3136482834815979,0.0,0.6863517165184021,0.0,0.0,0.0
97,P,0.0,0.0,0.3136482834815979,0.0,0.0,0.0,0.0,0.0,0.0,0.0,0.0,0.0,0.45013123750686646,0.0,0.0,0.11548556387424469,0.12073490768671036,0.0,0.0,0.0
98,E,0.0,0.0,0.17585301399230957,0.8241469860076904,0.0,0.0,0.0,0.0,0.0,0.0,0.0,0.0,0.0,0.0,0.0,0.0,0.0,0.0,0.0,0.0
99,I,0.0,0.0,0.0,0.0,0.0,0.0,0.0,0.7968544960021973,0.0,0.17562253773212433,0.0,0.0,0.0,0.0,0.0,0.0,0.0,0.027522936463356018,0.0,0.0
100,P,0.0,0.0,0.0,0.0,0.0,0.0,0.0,0.0,0.0,0.0,0.0,0.0,1.0,0.0,0.0,0.0,0.0,0.0,0.0,0.0
101,F,0.0,0.0,0.0,0.0,0.3132372200489044,0.0,0.0,0.0,0.0,0.0,0.0,0.0,0.0,0.0,0.0,0.0,0.0,0.0,0.0,0.6867627501487732
102,T,0.0,0.0,0.0,0.0,0.0,0.0,0.0,0.0,0.0,0.0,0.0,0.12057667225599289,0.0,0.0,0.0,0.0,0.8794233202934265,0.0,0.0,0.0
103,T,0.0,0.0,0.0,0.0,0.0,0.0,0.0,0.0,0.0,0.0,0.1376146823167801,0.0,0.1376146823167801,0.0,0.0,0.17562253773212433,0.4285714328289032,0.12057667225599289,0.0,0.0
104,E,0.0,0.0,0.0,0.6251638531684875,0.0,0.0,0.0,0.0,0.0,0.0,0.0,0.0,0.0,0.12057667225599289,0.0,0.25425949692726135,0.0,0.0,0.0,0.0
105,A,0.6972476840019226,0.027522936463356018,0.0,0.0,0.0,0.0,0.0,0.0,0.0,0.0,0.0,0.0,0.0,0.0,0.0,0.1376146823167801,0.1376146823167801,0.0,0.0,0.0
106,A,0.44954127073287964,0.0,0.0,0.0,0.228047177195549,0.0,0.0,0.0,0.0,0.0,0.23591087758541107,0.0,0.0,0.0,0.0,0.0,0.0,0.0,0.0,0.08650065213441849
107,N,0.0,0.0,0.007874015718698502,0.0,0.0,0.0,0.0,0.08923884481191635,0.0,0.0,0.0,0.5629921555519104,0.0,0.0,0.13779526948928833,0.0,0.11548556387424469,0.08661417663097382,0.0,0.0
108,E,0.0,0.0,0.1215323656797409,0.4451783299446106,0.0,0.0,0.0,0.0,0.0,0.0,0.0,0.0,0.0,0.0,0.4332892894744873,0.0,0.0,0.0,0.0,0.0
109,I,0.17585301399230957,0.0,0.0,0.0,0.0,0.0,0.0,0.5433070659637451,0.0,0.0,0.0,0.0,0.0,0.0,0.0,0.0,0.0,0.2808398902416229,0.0,0.0
110,A,0.45013123750686646,0.0,0.0,0.0,0.0,0.0,0.0,0.0,0.0,0.0,0.0,0.0,0.0,0.13779526948928833,0.0,0.08661417663097382,0.08923884481191635,0.23622047901153564,0.0,0.0
111,R,0.0,0.0,0.0,0.0,0.0,0.0,0.0,0.0,0.0,0.0,0.0,0.0,0.0,0.0,1.0,0.0,0.0,0.0,0.0,0.0
112,V,0.0,0.0,0.0,0.0,0.0,0.0,0.0,0.4123036563396454,0.0,0.0,0.13743455708026886,0.0,0.0,0.0,0.0,0.0,0.0,0.3128272294998169,0.0,0.13743455708026886
113,T,0.014416775666177273,0.0,0.0,0.0,0.0,0.0,0.0,0.08650065213441849,0.0,0.0,0.0,0.0,0.0,0.0,0.0,0.1376146823167801,0.6238532066345215,0.1376146823167801,0.0,0.0
114,G,0.0,0.0,0.0,0.006553079932928085,0.0,0.6802096962928772,0.0,0.0,0.0,0.0,0.0,0.17562253773212433,0.0,0.0,0.0,0.1376146823167801,0.0,0.0,0.0,0.0
115,E,0.13779526948928833,0.0,0.0,0.625984251499176,0.0,0.0,0.0,0.0,0.0,0.0,0.11548556387424469,0.0,0.0,0.12073490768671036,0.0,0.0,0.0,0.0,0.0,0.0
116,T,0.0,0.0,0.0,0.0,0.0,0.0,0.0,0.0,0.0,0.11533420532941818,0.12057667225599289,0.0,0.08650065213441849,0.0,0.1376146823167801,0.0,0.539973795413971,0.0,0.0,0.0
117,S,0.08923884481191635,0.0,0.0,0.0,0.0,0.22309711575508118,0.0,0.0,0.0,0.0,0.13779526948928833,0.11548556387424469,0.0,0.12073490768671036,0.0,0.3136482834815979,0.0,0.0,0.0,0.0
118,T,0.17585301399230957,0.0,0.0,0.0,0.0,0.0,0.0,0.13779526948928833,0.0,0.0,0.0,0.0,0.0,0.0,0.0,0.0,0.6863517165184021,0.0,0.0,0.0
119,W,0.0,0.0,0.0,0.0,0.12073490768671036,0.17585301399230957,0.0,0.13779526948928833,0.0,0.0,0.0,0.0,0.0,0.0,0.0,0.0,0.0,0.0,0.45013123750686646,0.11548556387424469
120,G,0.0,0.0,0.007874015718698502,0.0,0.0,0.5629921555519104,0.0,0.0,0.0,0.0,0.0,0.0,0.0,0.3136482834815979,0.0,0.0,0.11548556387424469,0.0,0.0,0.0
121,P,0.0,0.0,0.0,0.0,0.0,0.0,0.0,0.0,0.0,0.0,0.13779526948928833,0.0,0.6863517165184021,0.0,0.0,0.17585301399230957,0.0,0.0,0.0,0.0
122,A,0.3132372200489044,0.1376146823167801,0.1376146823167801,0.0,0.0,0.0,0.0,0.0,0.0,0.0,0.0,0.0,0.0,0.0,0.0,0.23591087758541107,0.17562253773212433,0.0,0.0,0.0
123,R,0.0,0.0,0.0,0.1376146823167801,0.0,0.0,0.0,0.0,0.12057667225599289,0.0,0.0,0.0,0.0,0.0,0.7418086528778076,0.0,0.0,0.0,0.0,0.0
124,Q,0.0,0.0,0.0,0.0,0.0,0.0,0.08718626201152802,0.0,0.0,0.0,0.11624834686517715,0.0,0.0,0.4451783299446106,0.22985468804836273,0.0,0.0,0.1215323656797409,0.0,0.0
125,P,0.02777777798473835,0.0,0.0,0.0,0.17724867165088654,0.0,0.0,0.0,0.0,0.0,0.0,0.1388888955116272,0.41798943281173706,0.12169311940670013,0.0,0.0,0.0,0.0,0.0,0.11640211939811707
126,Y,0.0,0.0,0.1365409642457962,0.0,0.1365409642457962,0.0,0.0,0.0,0.0,0.11443433165550232,0.0,0.08842653036117554,0.0,0.0,0.0,0.0,0.22236670553684235,0.0,0.0,0.3016905188560486
127,G,0.0,0.0,0.0,0.0,0.0,0.5747724175453186,0.0,0.0,0.0,0.17425227165222168,0.1365409642457962,0.0,0.11443433165550232,0.0,0.0,0.0,0.0,0.0,0.0,0.0
128,F,0.0,0.0,0.0,0.0,0.30129870772361755,0.0,0.0,0.0,0.0,0.13636364042758942,0.0,0.0,0.4259740114212036,0.0,0.0,0.0,0.0,0.0,0.0,0.13636364042758942
129,F,0.0,0.0,0.0,0.0,0.4382314682006836,0.0,0.0,0.0,0.0,0.0,0.0,0.0,0.0,0.0,0.0,0.0,0.1365409642457962,0.0,0.17425227165222168,0.25097528100013733
130,L,0.1365409642457962,0.0,0.0,0.0,0.0,0.0,0.0,0.11443433165550232,0.0,0.4382314682006836,0.0,0.0,0.3107932507991791,0.0,0.0,0.0,0.0,0.0,0.0,0.0
131,E,0.1495448648929596,0.0,0.17425227165222168,0.2743823230266571,0.0,0.16384916007518768,0.1365409642457962,0.0,0.0,0.0,0.0,0.0,0.0,0.0,0.0,0.0,0.10143043100833893,0.0,0.0,0.0
132,T,0.3875162601470947,0.0,0.0,0.0,0.0,0.0,0.0,0.0,0.0,0.0,0.0,0.0,0.0,0.0,0.0,0.02730819210410118,0.2743823230266571,0.17425227165222168,0.0,0.1365409642457962
133,E,0.10143043100833893,0.0,0.0,0.4382314682006836,0.0,0.0,0.0,0.0,0.08582574874162674,0.0,0.0,0.08842653036117554,0.035110533237457275,0.0,0.11443433165550232,0.0,0.0,0.1365409642457962,0.0,0.0
134,E,0.1365409642457962,0.0,0.11443433165550232,0.5747724175453186,0.17425227165222168,0.0,0.0,0.0,0.0,0.0,0.0,0.0,0.0,0.0,0.0,0.0,0.0,0.0,0.0,0.0
135,T,0.0,0.0,0.0,0.0,0.0,0.0,0.0,0.08842653036117554,0.0,0.08582574874162674,0.11443433165550232,0.0,0.0,0.0,0.0,0.0,0.18075422942638397,0.5305591821670532,0.0,0.0
136,F,0.0,0.0,0.0,0.0,0.13376623392105103,0.0,0.0,0.0,0.0,0.0,0.0,0.0,0.0,0.2506493628025055,0.0,0.0,0.27272728085517883,0.0,0.0,0.34285715222358704
137,Q,0.1145833358168602,0.0,0.0,0.0,0.0,0.0,0.0052083334885537624,0.0,0.0,0.0,0.0,0.0,0.1744791716337204,0.5690104365348816,0.0,0.13671875,0.0,0.0,0.0,0.0
138,P,0.0,0.0,0.0,0.0,0.0,0.0,0.13636364042758942,0.0,0.0,0.0,0.0,0.0,0.7272727489471436,0.0,0.0,0.13636364042758942,0.0,0.0,0.0,0.0
139,G,0.17425227165222168,0.0,0.0,0.0,0.0,0.8257477283477783,0.0,0.0,0.0,0.0,0.0,0.0,0.0,0.0,0.0,0.0,0.0,0.0,0.0,0.0
140,R,0.0,0.0,0.0,0.0,0.0,0.0,0.0,0.0,0.0,0.0,0.0,0.0,0.0,0.0,0.6892067790031433,0.0,0.17425227165222168,0.1365409642457962,0.0,0.0
141,W,0.0,0.0,0.0,0.0,0.1365409642457962,0.0,0.0,0.0,0.0,0.0,0.0,0.0,0.17425227165222168,0.0,0.0,0.0,0.0,0.1365409642457962,0.3016905188560486,0.25097528100013733
142,F,0.0,0.0,0.0,0.0,0.29610389471054077,0.0,0.0,0.0,0.0,0.141558438539505,0.0,0.0,0.0,0.0,0.13636364042758942,0.0,0.0,0.0,0.0,0.4259740114212036
143,M,0.13671875,0.0,0.0,0.0,0.0,0.0,0.0,0.0,0.0,0.0638020858168602,0.3020833432674408,0.0,0.0,0.0716145858168602,0.1744791716337204,0.0,0.0,0.2513020932674408,0.0,0.0
144,R,0.0,0.0,0.0,0.0,0.0,0.0,0.0,0.0,0.0,0.0,0.0,0.0,0.3875162601470947,0.0,0.4382314682006836,0.0,0.17425227165222168,0.0,0.0,0.0
145,A,0.7129870057106018,0.0,0.0,0.0,0.0,0.0,0.0,0.0,0.0,0.0,0.0,0.0,0.027272727340459824,0.13636364042758942,0.0,0.0,0.0,0.12337662279605865,0.0,0.0
146,A,0.3875162601470947,0.0,0.08842653036117554,0.0,0.0,0.5240572094917297,0.0,0.0,0.0,0.0,0.0,0.0,0.0,0.0,0.0,0.0,0.0,0.0,0.0,0.0
147,Q,0.0,0.0,0.1744791716337204,0.0,0.0,0.13671875,0.0052083334885537624,0.0,0.0,0.0,0.0,0.0,0.0,0.4322916567325592,0.2513020932674408,0.0,0.0,0.0,0.0,0.0
148,A,0.23506493866443634,0.0,0.0,0.08571428805589676,0.0,0.13636364042758942,0.0,0.0,0.0,0.0,0.0,0.13636364042758942,0.0,0.08831168711185455,0.0,0.11428571492433548,0.13636364042758942,0.06753246486186981,0.0,0.0
149,V,0.013020833022892475,0.0,0.0,0.0,0.0,0.0,0.0,0.109375,0.0,0.0,0.0,0.0,0.3111979067325592,0.0,0.2513020932674408,0.0,0.0,0.3151041567325592,0.0,0.0
150,T,0.010403120890259743,0.0,0.0,0.0,0.0,0.1365409642457962,0.0,0.0,0.0,0.0,0.0,0.0,0.0,0.17425227165222168,0.1365409642457962,0.11443433165550232,0.4278283417224884,0.0,0.0,0.0
151,A,0.37792208790779114,0.13636364042758942,0.0,0.0,0.0,0.13636364042758942,0.0,0.0,0.0,0.0,0.0,0.0,0.26883116364479065,0.0,0.0,0.0,0.08051948249340057,0.0,0.0,0.0
152,V,0.072727270424366,0.0,0.0,0.0,0.0,0.0,0.0,0.0,0.0,0.0,0.17402596771717072,0.0,0.0,0.0,0.0,0.04285714402794838,0.020779220387339592,0.41688311100006104,0.0,0.27272728085517883
153,V,0.296875,0.0,0.0,0.0364583320915699,0.0,0.0,0.0,0.09375,0.0,0.0,0.0,0.0,0.0,0.0,0.0,0.0,0.0,0.4878472089767456,0.0,0.0850694477558136
154,C,0.0,0.3020833432674408,0.0,0.0,0.0,0.0,0.0,0.3619791567325592,0.0,0.0,0.0,0.0,0.0,0.0,0.0,0.0,0.1145833358168602,0.2213541716337204,0.0,0.0
155,G,0.0,0.0,0.0,0.0,0.0,0.47594279050827026,0.0,0.0,0.0,0.0,0.0,0.1365409642457962,0.0,0.0,0.0,0.3875162601470947,0.0,0.0,0.0,0.0
156,P,0.22207792103290558,0.0,0.0,0.0,0.0,0.0,0.0,0.0,0.0,0.0,0.0,0.0,0.3844155967235565,0.006493506487458944,0.0,0.3870129883289337,0.0,0.0,0.0,0.0
157,D,0.0,0.0,0.2821846604347229,0.0,0.0,0.0,0.0,0.0,0.0,0.0,0.0,0.2652795910835266,0.0,0.17425227165222168,0.0,0.0,0.2782834768295288,0.0,0.0,0.0
158,M,0.0,0.0,0.17402596771717072,0.0,0.0,0.0,0.0,0.13636364042758942,0.0,0.13636364042758942,0.30129870772361755,0.0,0.0,0.0,0.0,0.0,0.2519480586051941,0.0,0.0,0.0
159,I,0.27272728085517883,0.0,0.0,0.0,0.0,0.0,0.0,0.3597402572631836,0.0,0.13636364042758942,0.17402596771717072,0.0,0.0,0.0,0.0,0.0,0.0,0.05714285746216774,0.0,0.0
160,Q,0.0,0.0,0.0,0.4259740114212036,0.0,0.0,0.0,0.0,0.0,0.0,0.0,0.0,0.0,0.5740259885787964,0.0,0.0,0.0,0.0,0.0,0.0
161,V,0.0,0.0,0.0,0.0,0.0,0.0,0.0,0.2535760700702667,0.0,0.0,0.0,0.0,0.0,0.0,0.0,0.0,0.08712613582611084,0.6592977643013,0.0,0.0
162,S,0.0,0.1365409642457962,0.0,0.0,0.0,0.0,0.1365409642457962,0.0,0.0,0.0,0.0,0.0,0.0,0.0,0.0,0.5526657700538635,0.17425227165222168,0.0,0.0,0.0
163,L,0.0,0.0,0.0,0.0,0.0,0.0,0.0,0.20661157369613647,0.0,0.4765840172767639,0.3168044090270996,0.0,0.0,0.0,0.0,0.0,0.0,0.0,0.0,0.0
164,N,0.0,0.0,0.28925618529319763,0.0,0.0,0.0,0.0,0.0,0.0,0.0,0.0,0.557851254940033,0.0,0.06198346987366676,0.0,0.0,0.0,0.09090909361839294,0.0,0.0
165,A,0.6027586460113525,0.0,0.0,0.0,0.0,0.005517241545021534,0.0,0.0,0.0,0.0,0.0,0.0,0.23586207628250122,0.062068965286016464,0.0,0.0,0.0,0.0937931016087532,0.0,0.0
166,G,0.09090909361839294,0.0,0.0,0.0,0.0,0.6707988977432251,0.0,0.0,0.0,0.0,0.14462809264659882,0.09366390854120255,0.0,0.0,0.0,0.0,0.0,0.0,0.0,0.0
167,A,0.6088154315948486,0.0,0.0,0.1845730096101761,0.0,0.0,0.0,0.0,0.0,0.0,0.0,0.0,0.0,0.14462809264659882,0.0,0.0,0.06198346987366676,0.0,0.0,0.0
168,R,0.14462809264659882,0.0,0.09366390854120255,0.09090909361839294,0.0,0.0,0.0,0.06887052208185196,0.0,0.0,0.0,0.14462809264659882,0.0,0.0,0.4573002755641937,0.0,0.0,0.0,0.0,0.0
169,G,0.02888583205640316,0.0,0.0,0.14442916214466095,0.0,0.5790921449661255,0.0,0.0,0.0,0.09078404307365417,0.0,0.0,0.0,0.0,0.0,0.0,0.0,0.15680880844593048,0.0,0.0
170,D,0.0,0.0,0.4641873240470886,0.1845730096101761,0.0,0.0,0.0,0.0,0.0,0.0,0.0,0.0,0.0,0.20661157369613647,0.0,0.0,0.0,0.14462809264659882,0.0,0.0
171,V,0.0,0.0,0.0,0.0,0.0,0.02896551787853241,0.0,0.362758606672287,0.0,0.14482758939266205,0.062068965286016464,0.0,0.0,0.0,0.0,0.0,0.0,0.4013793170452118,0.0,0.0
172,Q,0.0,0.0,0.0,0.0,0.0,0.06198346987366676,0.0,0.0,0.0,0.0,0.0,0.14462809264659882,0.0,0.4641873240470886,0.0,0.0,0.3292011022567749,0.0,0.0,0.0
173,Q,0.28925618529319763,0.0,0.09366390854120255,0.09090909361839294,0.0,0.06198346987366676,0.0,0.0,0.0,0.0,0.0,0.0,0.14462809264659882,0.3195592164993286,0.0,0.0,0.0,0.0,0.0,0.0
174,I,0.0,0.0,0.0,0.0,0.02888583205640316,0.0,0.0,0.3933975100517273,0.0,0.35075652599334717,0.02888583205640316,0.0,0.0,0.0,0.0,0.0,0.006877579260617495,0.19119669497013092,0.0,0.0
175,F,0.062068965286016464,0.0,0.0,0.0,0.5793103575706482,0.0,0.0,0.0,0.0,0.14482758939266205,0.18482758104801178,0.0,0.0,0.02896551787853241,0.0,0.0,0.0,0.0,0.0,0.0
176,Q,0.14482758939266205,0.0,0.0,0.0,0.0,0.0,0.0,0.0,0.0,0.0,0.0,0.0,0.3917241394519806,0.43448275327682495,0.02896551787853241,0.0,0.0,0.0,0.0,0.0
177,G,0.0,0.0,0.1735537201166153,0.0,0.0,0.28236913681030273,0.0,0.0,0.0,0.0,0.0,0.3292011022567749,0.0,0.0,0.20661157369613647,0.0,0.0,0.00826446246355772,0.0,0.0
178,R,0.0,0.0,0.0,0.0,0.0,0.0,0.0,0.0,0.0,0.0,0.0,0.0,0.0,0.2888583242893219,0.5185694694519043,0.0,0.0,0.008253094740211964,0.0,0.1843191236257553
179,N,0.0,0.0,0.0,0.14462809264659882,0.0,0.20661157369613647,0.0,0.0,0.0,0.0,0.00826446246355772,0.42699724435806274,0.1845730096101761,0.0,0.0,0.0,0.0,0.028925620019435883,0.0,0.0
180,D,0.0,0.0,0.9628099203109741,0.0,0.0,0.0,0.0,0.00826446246355772,0.0,0.0,0.0,0.0,0.0,0.0,0.0,0.028925620019435883,0.0,0.0,0.0,0.0
181,P,0.2068965584039688,0.0,0.0,0.0,0.0,0.0,0.0,0.0,0.0,0.02896551787853241,0.0,0.0,0.43448275327682495,0.0,0.0,0.0,0.0,0.32965517044067383,0.0,0.0
182,M,0.0,0.0,0.0,0.0,0.0,0.0,0.0,0.43663913011550903,0.0,0.0,0.352617084980011,0.0,0.0,0.0,0.028925620019435883,0.0,0.0,0.1818181872367859,0.0,0.0
183,M,0.0,0.0,0.0,0.0,0.0,0.02896551787853241,0.0,0.0,0.0,0.0,0.7862069010734558,0.18482758104801178,0.0,0.0,0.0,0.0,0.0,0.0,0.0,0.0
184,I,0.23586207628250122,0.0,0.0,0.0,0.0,0.02896551787853241,0.0,0.5793103575706482,0.0,0.0,0.062068965286016464,0.0,0.0,0.0,0.0,0.0,0.0937931016087532,0.0,0.0,0.0
185,Y,0.0,0.18482758104801178,0.0,0.17379310727119446,0.0,0.0,0.0,0.0,0.0,0.0,0.0,0.0,0.0,0.0,0.0,0.0,0.0,0.0,0.0,0.6413792967796326
186,L,0.0,0.0,0.0,0.0,0.589531660079956,0.0,0.028925620019435883,0.11983471363782883,0.0,0.26170799136161804,0.0,0.0,0.0,0.0,0.0,0.0,0.0,0.0,0.0,0.0
187,V,0.0,0.0,0.0,0.0,0.0,0.0,0.0,0.3636363744735718,0.0,0.0,0.0,0.0,0.0,0.0,0.0,0.0,0.0,0.6363636255264282,0.0,0.0
188,W,0.0,0.0,0.0,0.0,0.0,0.0,0.0,0.0,0.0,0.0,0.0,0.0,0.0,0.028925620019435883,0.0,0.0,0.0,0.0,0.9710744023323059,0.0
189,R,0.0,0.0,0.0,0.0,0.0,0.0,0.0,0.0,0.0,0.0,0.0,0.0,0.0,0.20661157369613647,0.6088154315948486,0.0,0.0,0.0,0.0,0.1845730096101761
190,R,0.0,0.0,0.0,0.0,0.0,0.0,0.0,0.0,0.0,0.0,0.0,0.0,0.20661157369613647,0.0,0.6088154315948486,0.0,0.1845730096101761,0.0,0.0,0.0
191,I,0.0,0.0,0.0,0.0,0.0,0.0,0.0,0.497245192527771,0.0,0.4738292098045349,0.0,0.0,0.0,0.0,0.0,0.028925620019435883,0.0,0.0,0.0,0.0
192,E,0.14462809264659882,0.0,0.0,0.3195592164993286,0.0,0.14462809264659882,0.0,0.0,0.0,0.0,0.0,0.0,0.0,0.0,0.20661157369613647,0.1845730096101761,0.0,0.0,0.0,0.0
193,N,0.0,0.0,0.0,0.0,0.0,0.0,0.1845730096101761,0.20247933268547058,0.0,0.0,0.0,0.40633609890937805,0.0,0.0,0.0,0.0,0.14462809264659882,0.06198346987366676,0.0,0.0
194,F,0.0,0.02880658395588398,0.0,0.0,0.6433470249176025,0.14403292536735535,0.0,0.0,0.0,0.0,0.0,0.0,0.0,0.0,0.0,0.0,0.0,0.0,0.0,0.1838134378194809
195,A,0.21810699999332428,0.14403292536735535,0.0,0.0,0.0,0.02880658395588398,0.0,0.14403292536735535,0.0,0.0,0.0,0.0,0.0,0.0,0.18930041790008545,0.27572017908096313,0.0,0.0,0.0,0.0
196,M,0.0,0.0,0.2931506931781769,0.0,0.0,0.24520547688007355,0.0,0.0,0.0,0.0,0.2602739632129669,0.1328767091035843,0.0,0.0,0.028767123818397522,0.039726026356220245,0.0,0.0,0.0,0.0
197,A,0.49452054500579834,0.0,0.0,0.0,0.0,0.0,0.0,0.0,0.0,0.0,0.0,0.1438356190919876,0.33287671208381653,0.0,0.028767123818397522,0.0,0.0,0.0,0.0,0.0
198,Q,0.23698629438877106,0.0,0.0,0.0,0.0,0.09041095525026321,0.0,0.028767123818397522,0.0,0.0,0.0,0.2054794579744339,0.0,0.4383561611175537,0.0,0.0,0.0,0.0,0.0,0.0
199,G,0.17260274291038513,0.0,0.0,0.0,0.0,0.8273972868919373,0.0,0.0,0.0,0.0,0.0,0.0,0.0,0.0,0.0,0.0,0.0,0.0,0.0,0.0
200,N,0.32784637808799744,0.0,0.0,0.0,0.0,0.0,0.0,0.0,0.0,0.0,0.0,0.4375857412815094,0.0,0.0,0.0,0.0,0.02880658395588398,0.20576131343841553,0.0,0.0
201,S,0.1679999977350235,0.0,0.0,0.0,0.0,0.0,0.0,0.0,0.0,0.21439999341964722,0.0,0.0,0.0,0.0,0.0,0.5455999970436096,0.07199999690055847,0.0,0.0,0.0
202,Q,0.0,0.0,0.0,0.0,0.0,0.028767123818397522,0.0,0.09041095525026321,0.0,0.1438356190919876,0.1438356190919876,0.0,0.0,0.47123289108276367,0.0,0.0,0.0,0.12191780656576157,0.0,0.0
203,Q,0.0,0.0,0.10410959273576736,0.4287671148777008,0.0,0.0,0.0,0.028767123818397522,0.0,0.0,0.0,0.1438356190919876,0.0,0.2232876718044281,0.0712328776717186,0.0,0.0,0.0,0.0,0.0
204,T,0.0,0.0,0.0,0.0,0.0,0.18356163799762726,0.0,0.0,0.0,0.0,0.1438356190919876,0.0,0.0,0.0,0.0,0.2054794579744339,0.4671232998371124,0.0,0.0,0.0
205,Q,0.1438356190919876,0.0,0.0,0.0,0.0,0.2054794579744339,0.0,0.0,0.0,0.15342465043067932,0.0,0.0,0.1438356190919876,0.1698630154132843,0.0,0.18356163799762726,0.0,0.0,0.0,0.0
206,A,0.3561643958091736,0.0,0.09041095525026321,0.0,0.0,0.0,0.0,0.0,0.0,0.0,0.0,0.0,0.1438356190919876,0.23698629438877106,0.028767123818397522,0.0,0.1438356190919876,0.0,0.0,0.0
207,G,0.0356164388358593,0.0,0.0,0.0,0.0,0.6369863152503967,0.0,0.0,0.0,0.0,0.0,0.1438356190919876,0.0,0.09315068274736404,0.0,0.0,0.09041095525026321,0.0,0.0,0.0
208,V,0.02880658395588398,0.1838134378194809,0.0,0.0,0.0,0.0,0.0,0.06172839552164078,0.0,0.0,0.0,0.0,0.0,0.0,0.0,0.0,0.14403292536735535,0.5816186666488647,0.0,0.0
209,T,0.028767123818397522,0.0,0.0,0.1438356190919876,0.1438356190919876,0.0,0.0,0.0,0.0,0.0,0.0,0.0,0.0,0.09041095525026321,0.0,0.09315068274736404,0.5,0.0,0.0,0.0
210,V,0.0,0.0,0.0,0.0,0.0,0.0,0.0,0.0,0.0,0.3767123222351074,0.0,0.0,0.0,0.0,0.0,0.0,0.0,0.6232876777648926,0.0,0.0
211,S,0.0,0.0,0.057534247636795044,0.0,0.0,0.0,0.0,0.0,0.0,0.1438356190919876,0.0,0.09041095525026321,0.0,0.0,0.0,0.3123287558555603,0.39589041471481323,0.0,0.0,0.0
212,V,0.09315068274736404,0.0,0.008219177834689617,0.0,0.0,0.0,0.0,0.11917807906866074,0.0,0.0,0.0,0.0,0.0,0.0,0.1438356190919876,0.0,0.0,0.6356164216995239,0.0,0.0
213,G,0.0,0.0,0.4397260248661041,0.028767123818397522,0.0,0.5315068364143372,0.0,0.0,0.0,0.0,0.0,0.0,0.0,0.0,0.0,0.0,0.0,0.0,0.0,0.0
214,G,0.0,0.02880658395588398,0.1838134378194809,0.0,0.0,0.6433470249176025,0.0,0.0,0.0,0.0,0.0,0.14403292536735535,0.0,0.0,0.0,0.0,0.0,0.0,0.0,0.0
215,V,0.1438356190919876,0.0,0.0,0.18356163799762726,0.0,0.0,0.0,0.0,0.0,0.0,0.0,0.0,0.0,0.0,0.0,0.0,0.0,0.6726027131080627,0.0,0.0
216,D,0.14403292536735535,0.0,0.28943759202957153,0.24554184079170227,0.0,0.0,0.0,0.0,0.0,0.0,0.0,0.32098764181137085,0.0,0.0,0.0,0.0,0.0,0.0,0.0,0.0
217,M,0.09315068274736404,0.0,0.0,0.0,0.0,0.0,0.0,0.09041095525026321,0.0,0.0,0.4383561611175537,0.0,0.0,0.0,0.0,0.0,0.0,0.37808218598365784,0.0,0.0
218,R,0.2054794579744339,0.0,0.0,0.32739725708961487,0.0,0.0,0.0,0.0,0.0,0.0,0.0,0.0,0.0,0.0,0.4671232998371124,0.0,0.0,0.0,0.0,0.0
219,A,0.7630137205123901,0.0,0.0,0.0,0.0,0.1438356190919876,0.0,0.0,0.0,0.0,0.0,0.0,0.0,0.0,0.0,0.09315068274736404,0.0,0.0,0.0,0.0
220,G,0.0,0.0,0.0,0.0,0.0,0.9712328910827637,0.0,0.0,0.0,0.0,0.0,0.0,0.0,0.0,0.028767123818397522,0.0,0.0,0.0,0.0,0.0
221,R,0.0,0.0,0.1438356190919876,0.0,0.0,0.0,0.0,0.0,0.0,0.0,0.0,0.06164383515715599,0.0,0.0,0.3232876658439636,0.0,0.1438356190919876,0.32739725708961487,0.0,0.0
222,I,0.0,0.0,0.0,0.18356163799762726,0.0,0.0,0.0,0.5287671089172363,0.0,0.0,0.0,0.0,0.1438356190919876,0.0,0.0,0.0,0.0,0.1438356190919876,0.0,0.0
223,I,0.06164383515715599,0.0,0.0,0.0,0.1438356190919876,0.0,0.0,0.4191780686378479,0.0,0.09041095525026321,0.0,0.0,0.0,0.0,0.0,0.0,0.034246575087308884,0.250684916973114,0.0,0.0
224,A,0.7547945380210876,0.0,0.0,0.0,0.0,0.0,0.0,0.18356163799762726,0.0,0.0,0.0,0.0,0.0,0.0,0.0,0.0,0.0,0.06164383515715599,0.0,0.0
225,W,0.0,0.0,0.0,0.0,0.0,0.0,0.0,0.0,0.0,0.0,0.0,0.0,0.0,0.0,0.0,0.0,0.1438356190919876,0.18356163799762726,0.5287671089172363,0.1438356190919876
226,D,0.0,0.0,0.5,0.0,0.0,0.0,0.0,0.0,0.0,0.0,0.0,0.17260274291038513,0.32739725708961487,0.0,0.0,0.0,0.0,0.0,0.0,0.0
227,G,0.09315068274736404,0.0,0.0,0.0,0.0,0.4287671148777008,0.0,0.0,0.0,0.0,0.0,0.0,0.0,0.009589040651917458,0.1438356190919876,0.0,0.2054794579744339,0.09041095525026321,0.028767123818397522,0.0
228,Q,0.0,0.0,0.0,0.0,0.0,0.21682848036289215,0.0,0.16990290582180023,0.0,0.0,0.0,0.0,0.0,0.5404530763626099,0.0,0.0,0.0,0.07281553745269775,0.0,0.0
229,A,0.7712000012397766,0.0,0.0,0.0,0.0,0.0,0.0,0.0,0.0,0.0,0.0,0.0,0.0,0.0,0.00800000037997961,0.10559999942779541,0.1151999980211258,0.0,0.0,0.0
230,A,0.34610122442245483,0.0,0.0,0.0,0.0,0.14363884925842285,0.0,0.0,0.0,0.0,0.0,0.0,0.4391244947910309,0.0,0.0,0.0,0.0,0.07113543152809143,0.0,0.0
231,L,0.0,0.0,0.0,0.0,0.0,0.0,0.0,0.38904109597206116,0.0,0.3232876658439636,0.0,0.0,0.0,0.0,0.0,0.0,0.0,0.2876712381839752,0.0,0.0
232,H,0.0,0.0,0.0,0.0,0.0,0.0,0.256515771150589,0.0,0.0,0.0,0.0,0.3155006766319275,0.0,0.18244169652462006,0.1838134378194809,0.0,0.0,0.06172839552164078,0.0,0.0
233,V,0.0,0.0,0.0,0.0,0.0,0.0,0.0,0.18219177424907684,0.0,0.0,0.0,0.0,0.0,0.0,0.0,0.0,0.0,0.817808210849762,0.0,0.0
234,H,0.0,0.0,0.0,0.0,0.0,0.1438356190919876,0.3095890283584595,0.09041095525026321,0.0,0.0,0.0,0.1438356190919876,0.0,0.0,0.013698630034923553,0.09315068274736404,0.06164383515715599,0.1438356190919876,0.0,0.0
235,N,0.0,0.0,0.0,0.0,0.0,0.0,0.0,0.0,0.0,0.1438356190919876,0.0,0.8561643958091736,0.0,0.0,0.0,0.0,0.0,0.0,0.0,0.0
236,P,0.1438356190919876,0.0,0.0,0.0,0.0,0.0,0.0,0.0,0.0,0.0,0.0,0.0,0.6726027131080627,0.0,0.0,0.09041095525026321,0.09315068274736404,0.0,0.0,0.0
237,T,0.0,0.0,0.0,0.0,0.0,0.2876712381839752,0.0,0.0,0.0,0.0,0.0,0.0,0.0,0.0,0.0,0.38904109597206116,0.3232876658439636,0.0,0.0,0.0
238,Q,0.4630137085914612,0.0,0.0,0.0,0.0,0.0,0.0,0.0,0.0,0.027397260069847107,0.0,0.06164383515715599,0.0,0.3041096031665802,0.0,0.0,0.0,0.0,0.0,0.1438356190919876
239,Q,0.02880658395588398,0.0,0.0,0.008230452425777912,0.0,0.13443072140216827,0.0,0.0,0.0,0.0,0.0,0.23456789553165436,0.0,0.2949245572090149,0.20576131343841553,0.0,0.0,0.0,0.0,0.09327846020460129
240,N,0.09315068274736404,0.0,0.06164383515715599,0.0,0.0,0.0,0.0,0.0,0.0,0.1438356190919876,0.0,0.3232876658439636,0.1068493127822876,0.036986302584409714,0.1438356190919876,0.0,0.09041095525026321,0.0,0.0,0.0
241,A,0.3232876658439636,0.1438356190919876,0.0,0.0,0.0,0.32739725708961487,0.0,0.0,0.0,0.0,0.0,0.0,0.0,0.0,0.0,0.2054794579744339,0.0,0.0,0.0,0.0
242,M,0.0,0.0,0.0,0.0,0.0,0.0,0.0,0.23424658179283142,0.0,0.0,0.6219177842140198,0.0,0.0,0.0,0.0,0.0,0.1438356190919876,0.0,0.0,0.0
243,V,0.0,0.0,0.0,0.0,0.0,0.0,0.0,0.49931600689888,0.0,0.14363884925842285,0.0,0.0,0.0,0.0,0.0,0.0,0.0,0.35704514384269714,0.0,0.0
244,Q,0.0,0.0,0.0,0.1438356190919876,0.0,0.0,0.32739725708961487,0.0,0.0,0.0,0.0,0.0,0.0,0.4671232998371124,0.06164383515715599,0.0,0.0,0.0,0.0,0.0
245,I,0.0,0.0,0.0,0.0,0.30000001192092896,0.0,0.0,0.5561643838882446,0.0,0.1438356190919876,0.0,0.0,0.0,0.0,0.0,0.0,0.0,0.0,0.0,0.0
246,Q,0.0,0.0,0.0,0.3493150770664215,0.0,0.0,0.0,0.0,0.0,0.0,0.0,0.09315068274736404,0.0,0.3232876658439636,0.0,0.0,0.23424658179283142,0.0,0.0,0.0
247,V,0.0,0.1438356190919876,0.0,0.0,0.0,0.0,0.0,0.09315068274736404,0.0,0.0,0.0,0.0,0.0,0.0,0.0,0.0,0.0,0.7630137205123901,0.0,0.0
248,V,0.0,0.0,0.0,0.0,0.0,0.0,0.0,0.1438356190919876,0.09041095525026321,0.2054794579744339,0.0,0.0,0.0,0.0,0.09315068274736404,0.0,0.1438356190919876,0.3232876658439636,0.0,0.0
249,F,0.0,0.0,0.0,0.0,0.3315068483352661,0.0,0.0,0.0,0.0,0.0,0.0,0.0,0.0,0.0,0.1438356190919876,0.0,0.0,0.0,0.38904109597206116,0.13561643660068512
250,Y,0.0,0.0,0.0,0.0,0.18356163799762726,0.0,0.0,0.0,0.0,0.0,0.0,0.0,0.0,0.0,0.0,0.0,0.0,0.0,0.0,0.8164383769035339
251,I,0.0,0.0,0.0,0.0,0.0,0.0,0.0,0.22982215881347656,0.0,0.13406293094158173,0.0,0.0,0.0,0.0,0.0,0.0,0.3885088860988617,0.09439124166965485,0.14363884925842285,0.009575922973453999
252,S,0.0,0.0,0.0,0.0,0.0,0.0,0.0,0.0,0.0,0.0,0.0,0.0,0.0,0.0,0.18715083599090576,0.6033519506454468,0.06284916400909424,0.14664804935455322,0.0,0.0
253,M,0.18715083599090576,0.0,0.0,0.0,0.06284916400909424,0.0,0.0,0.0,0.0,0.27374300360679626,0.3296089470386505,0.0,0.0,0.0,0.0,0.0,0.14664804935455322,0.0,0.0,0.0
254,D,0.0,0.0,0.6666666865348816,0.0,0.0,0.14644351601600647,0.0,0.0,0.0,0.0,0.0,0.0,0.0,0.18688981235027313,0.0,0.0,0.0,0.0,0.0,0.0
255,K,0.0,0.0,0.0,0.0,0.0,0.0,0.0,0.0,0.4755927622318268,0.0,0.0,0.0,0.3333333432674408,0.0,0.1910739243030548,0.0,0.0,0.0,0.0,0.0
256,T,0.0,0.0,0.0,0.0,0.0,0.0,0.0,0.0,0.0,0.0,0.0,0.0,0.14644351601600647,0.0,0.0,0.3152022361755371,0.5383542776107788,0.0,0.0,0.0
257,L,0.0,0.0,0.0920502096414566,0.09483961015939713,0.0,0.0,0.0,0.0,0.0,0.4574616551399231,0.14644351601600647,0.0,0.06276150792837143,0.0,0.14644351601600647,0.0,0.0,0.0,0.0,0.0
258,N,0.0,0.0,0.3235704302787781,0.0,0.0,0.0,0.0,0.0,0.0,0.0,0.0,0.32078102231025696,0.0,0.0,0.0,0.0,0.2092050164937973,0.14644351601600647,0.0,0.0
259,Q,0.0,0.0,0.0,0.0,0.0,0.0,0.0,0.0,0.0,0.24965132772922516,0.0,0.0,0.0,0.4755927622318268,0.0,0.0,0.12831240892410278,0.14644351601600647,0.0,0.0
260,Y,0.0,0.0,0.0,0.0,0.0,0.0,0.0,0.0,0.0,0.0,0.0,0.0,0.0,0.0,0.0,0.0,0.0,0.1910739243030548,0.0,0.8089261054992676
261,P,0.0,0.0,0.333798885345459,0.0,0.0,0.0,0.0,0.0,0.0,0.0,0.0,0.0,0.6578212380409241,0.0,0.0,0.008379888720810413,0.0,0.0,0.0,0.0
262,A,0.3110181391239166,0.0,0.0,0.1910739243030548,0.0,0.0,0.0,0.0,0.0,0.0,0.0,0.0,0.0,0.0,0.0,0.3110181391239166,0.18688981235027313,0.0,0.0,0.0
263,L,0.0,0.0,0.0,0.0,0.0,0.0,0.0,0.0,0.0,0.6033519506454468,0.333798885345459,0.0,0.0,0.0,0.0,0.0,0.06284916400909424,0.0,0.0,0.0
264,T,0.15642458200454712,0.0,0.0,0.14664804935455322,0.0,0.0,0.0,0.0,0.0,0.0,0.0,0.0,0.0,0.14664804935455322,0.18715083599090576,0.0,0.30027931928634644,0.0,0.0,0.06284916400909424
265,A,0.5927475690841675,0.0,0.0,0.06276150792837143,0.0,0.0,0.0,0.0,0.0,0.0,0.0,0.0,0.12831240892410278,0.0,0.0,0.029288703575730324,0.0,0.18688981235027313,0.0,0.0
266,E,0.0,0.0,0.3333333432674408,0.3291492462158203,0.0,0.0,0.03765690326690674,0.0,0.0,0.0,0.06276150792837143,0.0,0.0,0.10878661274909973,0.0,0.0,0.12831240892410278,0.0,0.0,0.0
267,I,0.0,0.0,0.0,0.0,0.09497206658124924,0.0,0.0,0.7136871218681335,0.0,0.1284916251897812,0.06284916400909424,0.0,0.0,0.0,0.0,0.0,0.0,0.0,0.0,0.0
268,F,0.09483961015939713,0.0,0.0,0.0,0.446304053068161,0.0920502096414566,0.0,0.0,0.0,0.14644351601600647,0.0,0.06276150792837143,0.0,0.0,0.0,0.0,0.12831240892410278,0.0,0.0,0.029288703575730324
269,N,0.3333333432674408,0.0,0.0,0.0,0.0,0.0,0.0,0.0,0.0,0.0,0.0,0.4755927622318268,0.0,0.0,0.1910739243030548,0.0,0.0,0.0,0.0,0.0
270,V,0.0,0.1910739243030548,0.0,0.0,0.0,0.0,0.0,0.015341701917350292,0.0,0.0,0.0,0.0,0.0,0.0,0.0,0.18688981235027313,0.0,0.6066945791244507,0.0,0.0
271,Y,0.0,0.0,0.0,0.0,0.0,0.0,0.0,0.0,0.0,0.0,0.0,0.0,0.0,0.0,0.0,0.0,0.0,0.0,0.0,1.0
272,S,0.12831240892410278,0.0,0.0,0.0,0.0,0.0,0.0,0.0,0.0,0.0,0.0,0.0,0.0,0.0,0.0,0.7252440452575684,0.14644351601600647,0.0,0.0,0.0
273,F,0.0,0.0,0.0,0.0,0.4253835380077362,0.0,0.0,0.0,0.0,0.0,0.0,0.0,0.0,0.0,0.0,0.0,0.0,0.0,0.0,0.5746164321899414
274,R,0.0,0.0,0.0,0.0,0.0,0.0,0.18688981235027313,0.06276150792837143,0.14644351601600647,0.0,0.0,0.0,0.0,0.0,0.4755927622318268,0.0,0.0,0.12831240892410278,0.0,0.0
275,D,0.0,0.0,0.5676429271697998,0.0,0.0,0.0,0.0,0.0,0.0,0.0,0.0,0.14644351601600647,0.0,0.0,0.0,0.28591352701187134,0.0,0.0,0.0,0.0
276,H,0.0,0.0,0.0,0.09497206658124924,0.0,0.14664804935455322,0.30027931928634644,0.0,0.0,0.0,0.0,0.0,0.3659217953681946,0.09217876940965652,0.0,0.0,0.0,0.0,0.0,0.0
277,T,0.0,0.0,0.0,0.0,0.14644351601600647,0.0,0.0,0.0,0.0,0.14644351601600647,0.0,0.0,0.0,0.24965132772922516,0.0,0.0,0.4574616551399231,0.0,0.0,0.0
278,W,0.0,0.0,0.0,0.0,0.0,0.0,0.0,0.0,0.0,0.0,0.0,0.0,0.0,0.0,0.0,0.0,0.0,0.0,1.0,0.0
279,H,0.0,0.0,0.14644351601600647,0.0,0.0,0.0,0.6666666865348816,0.0,0.0,0.0,0.0,0.0,0.0,0.0,0.0,0.0,0.0,0.0,0.0,0.18688981235027313
280,G,0.36680614948272705,0.0,0.0920502096414566,0.0,0.0,0.446304053068161,0.0,0.0,0.0,0.0,0.0,0.09483961015939713,0.0,0.0,0.0,0.0,0.0,0.0,0.0,0.0
281,L,0.0,0.0,0.0,0.0,0.0,0.0,0.0,0.0,0.0,1.0,0.0,0.0,0.0,0.0,0.0,0.0,0.0,0.0,0.0,0.0
282,R,0.0,0.0,0.0,0.0,0.0,0.0,0.0,0.0,0.008368200622498989,0.0,0.0,0.0,0.0,0.0,0.991631805896759,0.0,0.0,0.0,0.0,0.0
283,T,0.33704736828804016,0.0,0.0,0.0,0.0,0.0,0.0,0.0,0.0,0.0,0.01532033458352089,0.0,0.0,0.0,0.0,0.3426183760166168,0.3050139248371124,0.0,0.0,0.0
284,A,0.47001394629478455,0.0,0.0,0.0,0.0,0.0,0.0,0.0,0.0,0.0,0.0,0.0,0.0,0.0,0.0,0.0,0.06276150792837143,0.13389120995998383,0.0,0.3333333432674408
285,I,0.0,0.0,0.0,0.0,0.0,0.0,0.0,0.6033519506454468,0.0,0.25,0.0,0.0,0.0,0.0,0.0,0.0,0.0,0.14664804935455322,0.0,0.0
286,L,0.0,0.06276150792837143,0.0,0.0,0.12831240892410278,0.0,0.0,0.0,0.0,0.7949790954589844,0.0,0.0,0.0,0.0,0.013947001658380032,0.0,0.0,0.0,0.0,0.0
287,N,0.0,0.0,0.0,0.0,0.0,0.0,0.0,0.0,0.006973500829190016,0.0,0.06276150792837143,0.454672247171402,0.0,0.27475592494010925,0.20083682239055634,0.0,0.0,0.0,0.0,0.0
288,R,0.14644351601600647,0.0,0.0,0.0,0.0,0.013947001658380032,0.0,0.0,0.0,0.09483961015939713,0.0,0.0,0.0,0.2203626185655594,0.5244072675704956,0.0,0.0,0.0,0.0,0.0
289,T,0.0,0.0,0.0,0.0,0.0,0.0,0.0,0.09483961015939713,0.0,0.14644351601600647,0.2203626185655594,0.0,0.0,0.0,0.0,0.0,0.4755927622318268,0.06276150792837143,0.0,0.0
290,T,0.0,0.0,0.09192200750112534,0.0,0.0,0.3050139248371124,0.0,0.006963788531720638,0.0,0.0,0.0,0.12813369929790497,0.0,0.0,0.0,0.0,0.46796658635139465,0.0,0.0,0.0
291,L,0.0,0.0,0.0,0.0,0.0,0.0,0.0,0.0920502096414566,0.0,0.633193850517273,0.27475592494010925,0.0,0.0,0.0,0.0,0.0,0.0,0.0,0.0,0.0
292,P,0.0,0.0,0.0,0.0,0.0,0.0,0.0,0.0,0.0,0.0,0.0,0.0,0.8716875910758972,0.12831240892410278,0.0,0.0,0.0,0.0,0.0,0.0
293,N,0.2092050164937973,0.0,0.0,0.0,0.0,0.029288703575730324,0.0,0.0,0.0,0.0,0.0,0.446304053068161,0.3152022361755371,0.0,0.0,0.0,0.0,0.0,0.0,0.0
294,M,0.0,0.0,0.0,0.0,0.0,0.0,0.24267782270908356,0.12831240892410278,0.0,0.0,0.3542538285255432,0.23709902167320251,0.0,0.0,0.0,0.0,0.0,0.03765690326690674,0.0,0.0
295,L,0.0,0.0,0.0,0.0,0.0,0.0,0.2092050164937973,0.227336123585701,0.0,0.3291492462158203,0.0,0.142259418964386,0.0,0.0,0.0,0.0,0.0,0.0920502096414566,0.0,0.0
296,P,0.0,0.0,0.0,0.0,0.0,0.0,0.0,0.0,0.0,0.0,0.0,0.0,0.8535565137863159,0.0,0.0,0.0,0.0,0.0,0.0,0.14644351601600647
297,P,0.0,0.0,0.0,0.0,0.0,0.0,0.0,0.0,0.0,0.0,0.0,0.0,1.0,0.0,0.0,0.0,0.0,0.0,0.0,0.0
298,I,0.0,0.0,0.0,0.0,0.0,0.0,0.0,0.6666666865348816,0.0,0.0,0.0,0.18688981235027313,0.0,0.0,0.0,0.0,0.14644351601600647,0.0,0.0,0.0
299,F,0.0,0.0,0.09483961015939713,0.0920502096414566,0.5202231407165527,0.0,0.0,0.0,0.0,0.0,0.0,0.0,0.0,0.0,0.14644351601600647,0.0,0.0,0.0,0.0,0.14644351601600647
300,P,0.06276150792837143,0.0,0.0,0.0,0.0,0.0,0.0,0.0,0.0,0.0,0.0,0.0,0.9372385144233704,0.0,0.0,0.0,0.0,0.0,0.0,0.0
301,P,0.0,0.0,0.0,0.0,0.0,0.0,0.0,0.18688981235027313,0.0,0.0,0.0,0.0,0.6666666865348816,0.0,0.0,0.0,0.0,0.14644351601600647,0.0,0.0
302,N,0.029288703575730324,0.0,0.0,0.0,0.0,0.06276150792837143,0.03765690326690674,0.0,0.0,0.0,0.0,0.4086471498012543,0.0,0.0,0.18688981235027313,0.0,0.27475592494010925,0.0,0.0,0.0
303,D,0.0,0.0,0.5383542776107788,0.27475592494010925,0.0,0.0,0.0,0.0,0.0,0.0,0.0,0.0,0.0,0.0,0.0,0.0,0.0,0.18688981235027313,0.0,0.0
304,R,0.0920502096414566,0.0,0.0,0.0,0.14644351601600647,0.0,0.0,0.0,0.0,0.0,0.0,0.0,0.09483961015939713,0.0,0.6666666865348816,0.0,0.0,0.0,0.0,0.0
305,D,0.0,0.0,0.30027931928634644,0.2374301701784134,0.0,0.0,0.0,0.0,0.0,0.0,0.0,0.31564244627952576,0.0,0.0,0.14664804935455322,0.0,0.0,0.0,0.0,0.0
306,S,0.0,0.0,0.0,0.12831240892410278,0.0,0.0,0.0,0.0,0.0,0.0,0.0,0.14644351601600647,0.0,0.14644351601600647,0.18688981235027313,0.3291492462158203,0.06276150792837143,0.0,0.0,0.0
307,I,0.0,0.0,0.0,0.0,0.0,0.0,0.0,0.45885634422302246,0.0,0.06276150792837143,0.0,0.14644351601600647,0.0,0.0,0.0,0.0,0.0,0.33193862438201904,0.0,0.0
308,L,0.0,0.0,0.0,0.0,0.0,0.0,0.0,0.029288703575730324,0.0,0.7796373963356018,0.06276150792837143,0.0,0.0,0.0,0.0,0.0,0.0,0.12831240892410278,0.0,0.0
309,T,0.4295676350593567,0.0,0.0,0.0,0.0,0.0,0.0,0.0,0.0,0.14644351601600647,0.09483961015939713,0.0,0.0,0.0,0.0,0.0,0.29986053705215454,0.029288703575730324,0.0,0.0
310,L,0.0,0.0,0.0,0.0,0.0,0.0,0.0,0.2552301287651062,0.0,0.6652719378471375,0.0,0.0,0.0,0.0,0.0,0.0,0.0,0.0,0.0,0.07949791103601456
311,L,0.3333333432674408,0.0,0.0,0.0,0.0,0.0,0.0,0.14644351601600647,0.0,0.5118549466133118,0.008368200622498989,0.0,0.0,0.0,0.0,0.0,0.0,0.0,0.0,0.0
312,L,0.0,0.0,0.0,0.0,0.0,0.0,0.0,0.14644351601600647,0.0,0.8465830087661743,0.0,0.0,0.006973500829190016,0.0,0.0,0.0,0.0,0.0,0.0,0.0
313,L,0.0,0.0,0.0,0.0,0.0,0.0,0.0,0.09483961015939713,0.0,0.6220362782478333,0.0,0.0,0.0,0.0,0.0,0.0,0.0,0.2203626185655594,0.0,0.06276150792837143
314,S,0.12831240892410278,0.0,0.0,0.0,0.0,0.0,0.0,0.0,0.0,0.0,0.0,0.0,0.0,0.0,0.0,0.8716875910758972,0.0,0.0,0.0,0.0
315,T,0.19972066581249237,0.0,0.0,0.0,0.0,0.0,0.0,0.0,0.0,0.0,0.0,0.0,0.0,0.0,0.333798885345459,0.13687150180339813,0.3296089470386505,0.0,0.0,0.0
316,L,0.0,0.0,0.0,0.0,0.0,0.0,0.0,0.0,0.0,1.0,0.0,0.0,0.0,0.0,0.0,0.0,0.0,0.0,0.0,0.0
317,A,0.6527196764945984,0.0,0.0,0.0,0.14644351601600647,0.013947001658380032,0.0,0.0,0.0,0.0,0.0,0.0,0.0,0.18688981235027313,0.0,0.0,0.0,0.0,0.0,0.0
318,D,0.0,0.0,0.8940027952194214,0.0,0.0,0.013947001658380032,0.0,0.0,0.0,0.0,0.0,0.0920502096414566,0.0,0.0,0.0,0.0,0.0,0.0,0.0,0.0
319,V,0.2914923429489136,0.0,0.0,0.0,0.0,0.0,0.0,0.0,0.0,0.0,0.0,0.0,0.0,0.0,0.0,0.0,0.00976290088146925,0.6987447738647461,0.0,0.0
320,Y,0.0,0.06276150792837143,0.0,0.0,0.14644351601600647,0.0,0.0,0.0,0.0,0.0,0.0,0.0,0.0,0.0,0.0,0.0,0.0,0.0,0.0,0.7907949686050415
321,T,0.1284916251897812,0.0,0.06284916400909424,0.0,0.0,0.0,0.0,0.0,0.0,0.0,0.0,0.0,0.0,0.0,0.0,0.3645251393318176,0.2569832503795624,0.18715083599090576,0.0,0.0
322,V,0.37796375155448914,0.0,0.0,0.0,0.0,0.0,0.0,0.0,0.0,0.0,0.0,0.0,0.0,0.14644351601600647,0.0,0.0,0.0,0.4755927622318268,0.0,0.0
323,L,0.0,0.0,0.0,0.0,0.0,0.0,0.18688981235027313,0.0,0.0,0.6666666865348816,0.0,0.0,0.0,0.0,0.0,0.0,0.0,0.0,0.14644351601600647,0.0
324,R,0.13249650597572327,0.0,0.0,0.0,0.0,0.013947001658380032,0.0,0.0,0.0920502096414566,0.0,0.0,0.0,0.0,0.0,0.5746164321899414,0.18688981235027313,0.0,0.0,0.0,0.0
325,P,0.0,0.0,0.0,0.0,0.0,0.0,0.0,0.0,0.0,0.0,0.0,0.0,1.0,0.0,0.0,0.0,0.0,0.0,0.0,0.0
326,E,0.0,0.0,0.5062761306762695,0.4937238395214081,0.0,0.0,0.0,0.0,0.0,0.0,0.0,0.0,0.0,0.0,0.0,0.0,0.0,0.0,0.0,0.0
327,F,0.0,0.0,0.0,0.0,0.7741407752037048,0.0,0.0,0.11129296571016312,0.0,0.00654664495959878,0.1080196425318718,0.0,0.0,0.0,0.0,0.0,0.0,0.0,0.0,0.0
328,A,0.33169934153556824,0.0,0.19281046092510223,0.0,0.0,0.0,0.0,0.03431372717022896,0.0,0.0,0.0,0.2777777910232544,0.0,0.0,0.15032680332660675,0.0,0.0,0.013071895577013493,0.0,0.0
329,I,0.0,0.0,0.0,0.0,0.0,0.0,0.0,0.4811784029006958,0.0,0.2782323956489563,0.2405892014503479,0.0,0.0,0.0,0.0,0.0,0.0,0.0,0.0,0.0
330,H,0.0,0.0,0.0,0.0,0.1930147111415863,0.0,0.43382352590560913,0.08272058516740799,0.0,0.0,0.0,0.16911764442920685,0.0,0.12132352590560913,0.0,0.0,0.0,0.0,0.0,0.0
331,G,0.0,0.0,0.0,0.0,0.0,1.0,0.0,0.0,0.0,0.0,0.0,0.0,0.0,0.0,0.0,0.0,0.0,0.0,0.0,0.0
332,V,0.0,0.0,0.0,0.0,0.0,0.0,0.0,0.012820512987673283,0.0,0.0,0.0,0.0,0.0,0.0,0.0,0.0,0.0,0.9871794581413269,0.0,0.0
333,N,0.24587155878543854,0.0,0.0,0.0,0.0,0.0,0.0,0.0,0.0,0.0,0.0,0.39449542760849,0.0,0.0,0.0,0.0,0.0,0.35963302850723267,0.0,0.0
334,P,0.19287212193012238,0.0,0.0,0.0,0.0,0.09433962404727936,0.0,0.0,0.0,0.0,0.0,0.0,0.704402506351471,0.008385743945837021,0.0,0.0,0.0,0.0,0.0,0.0
335,M,0.0,0.0,0.0,0.0,0.0,0.0,0.0,0.2620545029640198,0.0,0.0,0.4507337510585785,0.0,0.19287212193012238,0.0,0.0,0.0,0.0,0.09433962404727936,0.0,0.0
336,P,0.0,0.0,0.0,0.0,0.0,0.0,0.0,0.0,0.0,0.0,0.0,0.0,0.47685185074806213,0.25231480598449707,0.0,0.011574073694646358,0.0,0.25925925374031067,0.0,0.0
337,G,0.09414225816726685,0.0,0.0,0.0,0.0,0.8933054208755493,0.0,0.0,0.0,0.0,0.0,0.0,0.0,0.0,0.0,0.0,0.0,0.0,0.012552301399409771,0.0
338,P,0.0,0.0,0.0,0.0,0.0,0.0,0.0,0.0,0.0,0.0,0.0,0.0,0.7651991844177246,0.23480084538459778,0.0,0.0,0.0,0.0,0.0,0.0
339,L,0.0,0.0,0.0,0.0,0.0,0.0,0.0,0.45492660999298096,0.0,0.4507337510585785,0.0,0.0,0.0,0.09433962404727936,0.0,0.0,0.0,0.0,0.0,0.0
340,T,0.0,0.0,0.0,0.0,0.0,0.0,0.0,0.0,0.0,0.0,0.0,0.5062761306762695,0.0,0.0,0.0,0.0,0.4937238395214081,0.0,0.0,0.0
341,R,0.020964359864592552,0.0,0.0,0.0,0.0,0.0,0.0,0.0,0.0,0.0,0.0,0.0,0.0,0.0,0.9790356159210205,0.0,0.0,0.0,0.0,0.0
342,A,1.0,0.0,0.0,0.0,0.0,0.0,0.0,0.0,0.0,0.0,0.0,0.0,0.0,0.0,0.0,0.0,0.0,0.0,0.0,0.0
343,I,0.0,0.0,0.0,0.0,0.0,0.09473684430122375,0.0,0.47999998927116394,0.0,0.19368420541286469,0.0,0.0,0.0,0.0,0.0,0.0,0.010526316240429878,0.2210526317358017,0.0,0.0
344,A,0.7109704613685608,0.0,0.0,0.0,0.0,0.0,0.0,0.0,0.0,0.0,0.0,0.0,0.0,0.0,0.0,0.0,0.0,0.2890295386314392,0.0,0.0
345,R,0.09493670612573624,0.0,0.0,0.0,0.0,0.0,0.0,0.0,0.0,0.19409282505512238,0.0,0.0,0.0,0.22151899337768555,0.48945146799087524,0.0,0.0,0.0,0.0,0.0
346,A,0.6835442781448364,0.0,0.0,0.0,0.0,0.0,0.0,0.0,0.0,0.0,0.0,0.22151899337768555,0.0,0.09493670612573624,0.0,0.0,0.0,0.0,0.0,0.0
347,A,1.0,0.0,0.0,0.0,0.0,0.0,0.0,0.0,0.0,0.0,0.0,0.0,0.0,0.0,0.0,0.0,0.0,0.0,0.0,0.0
348,Y,0.0,0.0,0.0,0.0,0.0,0.0,0.0,0.0,0.0,0.0,0.0,0.0,0.0,0.0,0.0,0.0,0.0,0.0,0.0,1.0
349,V,0.0,0.0,0.0,0.0,0.0,0.0,0.0,0.0,0.0,0.0,0.1508771926164627,0.0,0.0,0.0,0.0,0.0,0.0,0.8491228222846985,0.0,0.0
