RES_NUM,AMINO_ACID,A,C,D,E,F,G,H,I,K,L,M,N,P,Q,R,S,T,V,W,Y
1,G,0.0,0.0,0.0,0.0,0.0,1.0,0.0,0.0,0.0,0.0,0.0,0.0,0.0,0.0,0.0,0.0,0.0,0.0,0.0,0.0
2,S,0.0,0.0,0.0,0.0,0.0,0.0,0.0,0.0,0.0,0.0,0.0,0.0,0.0,0.0,0.0,1.0,0.0,0.0,0.0,0.0
3,H,0.0,0.0,0.0,0.0,0.0,0.0,1.0,0.0,0.0,0.0,0.0,0.0,0.0,0.0,0.0,0.0,0.0,0.0,0.0,0.0
4,M,0.0,0.0,0.0,0.16379310190677643,0.0,0.0,0.0,0.0,0.08620689809322357,0.0,0.10632184147834778,0.054597701877355576,0.5488505959510803,0.0,0.04022988677024841,0.0,0.0,0.0,0.0,0.0
5,G,0.06741572916507721,0.0,0.04333868250250816,0.0,0.0,0.16693419218063354,0.0,0.0,0.01765650138258934,0.008025682531297207,0.03531300276517868,0.024077046662569046,0.0,0.09791332483291626,0.025682182982563972,0.454253613948822,0.059390049427747726,0.0,0.0,0.0
6,S,0.09152542054653168,0.0,0.07683616131544113,0.09717514365911484,0.0,0.0,0.0,0.02146892622113228,0.02259887009859085,0.0,0.0,0.02146892622113228,0.14463277161121368,0.014689265750348568,0.0,0.3627118766307831,0.0903954803943634,0.05649717524647713,0.0,0.0
7,L,0.0,0.0,0.0,0.0,0.07057341188192368,0.0,0.0,0.08065532147884369,0.0,0.43478259444236755,0.3994958996772766,0.0,0.0,0.0,0.0,0.0,0.0,0.014492753893136978,0.0,0.0
8,D,0.0,0.027469316497445107,0.2577440142631531,0.020455874502658844,0.0,0.0,0.0,0.0,0.01753360591828823,0.0,0.0,0.21390999853610992,0.031560491770505905,0.005260081961750984,0.0,0.16189363598823547,0.2641730010509491,0.0,0.0,0.0
9,E,0.01306076068431139,0.0,0.28279387950897217,0.32367971539497375,0.0,0.03747870400547981,0.017603633925318718,0.07609312981367111,0.0,0.029528677463531494,0.009085746482014656,0.09085746854543686,0.0073821693658828735,0.015332197770476341,0.018171492964029312,0.040885861963033676,0.011925042606890202,0.02612152136862278,0.0,0.0
10,T,0.17059484124183655,0.0,0.03647587075829506,0.04040404036641121,0.0,0.005050505045801401,0.05723905563354492,0.010101010091602802,0.0,0.02300785668194294,0.0,0.054433222860097885,0.0,0.04545454680919647,0.0,0.24915824830532074,0.22951740026474,0.07856341451406479,0.0,0.0
11,T,0.06413043290376663,0.0,0.043478261679410934,0.42554348707199097,0.008695651777088642,0.0,0.0,0.0,0.032608695328235626,0.04945652186870575,0.0,0.014130434952676296,0.0,0.1201086938381195,0.0625,0.0260869562625885,0.14728261530399323,0.005978260654956102,0.0,0.0
12,Y,0.0,0.0,0.0,0.0,0.4872213304042816,0.0,0.0,0.0,0.0,0.0,0.0,0.0,0.0,0.0,0.0,0.0,0.0,0.0,0.0,0.5127786993980408
13,E,0.01685698702931404,0.0,0.00870038103312254,0.20880913734436035,0.0,0.0,0.399673730134964,0.01196302380412817,0.0,0.07449700683355331,0.005437737796455622,0.12561175227165222,0.0,0.04078303277492523,0.0,0.06199021264910698,0.0,0.022838499397039413,0.0,0.022838499397039413
14,R,0.10177706182003021,0.0,0.08292945474386215,0.08939149230718613,0.0,0.0,0.050619278103113174,0.01346257422119379,0.13893376290798187,0.004308023490011692,0.0,0.0312331710010767,0.0,0.15939687192440033,0.18793752789497375,0.05977382883429527,0.06946688145399094,0.010770059190690517,0.0,0.0
15,L,0.11410118639469147,0.0,0.0,0.00807319674640894,0.0,0.0,0.007534984033554792,0.06727664172649384,0.037136707454919815,0.5032292604446411,0.0,0.020990312099456787,0.0,0.027448870241642,0.037136707454919815,0.008611409924924374,0.0,0.13293863832950592,0.0,0.03552206605672836
16,A,0.520386278629303,0.06598712503910065,0.0,0.0,0.014484978280961514,0.0,0.0,0.042918454855680466,0.0,0.0,0.0,0.0,0.0,0.0,0.0,0.14431330561637878,0.041309013962745667,0.17060086131095886,0.0,0.0
17,E,0.015557940118014812,0.006974249146878719,0.4887339174747467,0.30096566677093506,0.0,0.0037553647998720407,0.0,0.0,0.014484978280961514,0.0,0.0,0.03594420477747917,0.0,0.0,0.028433475643396378,0.07993562519550323,0.0075107295997440815,0.0,0.0,0.017703862860798836
18,E,0.14538626372814178,0.0,0.11641630530357361,0.29452788829803467,0.009120171889662743,0.042918454855680466,0.04023605212569237,0.009120171889662743,0.030042918398976326,0.03809012845158577,0.0,0.043991416692733765,0.009656652808189392,0.10032188892364502,0.03809012845158577,0.03862661123275757,0.043454933911561966,0.0,0.0,0.0
19,T,0.06659506261348724,0.0,0.01664876565337181,0.021482277661561966,0.06498388946056366,0.0,0.0,0.010204081423580647,0.003222341649234295,0.20837809145450592,0.028464017435908318,0.0,0.0,0.015037594363093376,0.0,0.0,0.3582169711589813,0.0993555337190628,0.0,0.10741138458251953
20,L,0.0,0.0,0.0,0.0,0.14518673717975616,0.0,0.0,0.04944765940308571,0.0,0.6149395108222961,0.08521830290555954,0.0,0.0,0.05049973726272583,0.0,0.0,0.0,0.0,0.04997369647026062,0.004734350368380547
21,D,0.07526315748691559,0.0,0.28947368264198303,0.21578946709632874,0.0442105270922184,0.015789473429322243,0.04210526496171951,0.0036842105910182,0.024210525676608086,0.0884210541844368,0.011578947305679321,0.03368420898914337,0.0,0.08368421345949173,0.0,0.021052632480859756,0.04157894849777222,0.00947368424385786,0.0,0.0
22,S,0.12118019163608551,0.006322444882243872,0.03108535334467888,0.05742887407541275,0.0,0.024236038327217102,0.06006322428584099,0.02845100127160549,0.05690200254321098,0.04583772271871567,0.0,0.04741833359003067,0.0,0.04899894446134567,0.09589041024446487,0.1975764036178589,0.08587987720966339,0.04583772271871567,0.0,0.0468914657831192
23,L,0.0,0.0,0.0,0.019473684951663017,0.008421052247285843,0.0,0.0,0.38947367668151855,0.0,0.40526315569877625,0.0,0.0,0.0,0.0,0.0,0.0,0.0,0.1773684173822403,0.0,0.0
24,A,0.15323854982852936,0.024749867618083954,0.025276461616158485,0.44865718483924866,0.007372301071882248,0.009478673338890076,0.0,0.0,0.0,0.0905739888548851,0.0,0.02369668334722519,0.0,0.03475513309240341,0.0,0.04318062216043472,0.04581358656287193,0.0847814604640007,0.0,0.008425487205386162
25,E,0.08947368711233139,0.008421052247285843,0.24526315927505493,0.3357894718647003,0.0,0.0036842105910182,0.013684210367500782,0.006842105183750391,0.03526315838098526,0.005789473652839661,0.0,0.07105263322591782,0.0,0.009999999776482582,0.07000000029802322,0.056315790861845016,0.04842105135321617,0.0,0.0,0.0
26,F,0.1856917440891266,0.00736454501748085,0.008416622877120972,0.02209363505244255,0.10205154865980148,0.00736454501748085,0.013677012175321579,0.017359284684062004,0.13045765459537506,0.008416622877120972,0.05786428228020668,0.02893214114010334,0.0,0.08048395812511444,0.06522882729768753,0.05207785218954086,0.07259336858987808,0.04103103652596474,0.0,0.09889531880617142
27,F,0.02789473719894886,0.014210525900125504,0.0,0.0,0.2642105221748352,0.0,0.0,0.22421053051948547,0.019473684951663017,0.3531579077243805,0.0,0.0,0.0,0.0,0.0,0.0,0.0,0.09000000357627869,0.0,0.006842105183750391
28,E,0.0,0.0,0.36105263233184814,0.5610526204109192,0.0,0.0,0.0,0.0,0.0,0.0,0.0,0.02789473719894886,0.0,0.019473684951663017,0.0,0.030526315793395042,0.0,0.0,0.0,0.0
29,D,0.09879770129919052,0.0,0.3016204833984375,0.24777835607528687,0.007318348158150911,0.014113957062363625,0.0,0.02979613095521927,0.04391008988022804,0.006272869650274515,0.004704652354121208,0.024046001955866814,0.0,0.08991113305091858,0.04652378335595131,0.04181913286447525,0.03345530480146408,0.004704652354121208,0.0,0.005227391608059406
30,L,0.11820083856582642,0.02248954027891159,0.0,0.02196652628481388,0.05910041928291321,0.01778242737054825,0.0062761506997048855,0.07949791103601456,0.011506276205182076,0.2892259359359741,0.04497908055782318,0.02301255241036415,0.0,0.04916318133473396,0.0015690376749262214,0.0946652740240097,0.002615062752738595,0.07269874215126038,0.04131799191236496,0.04393305256962776
31,A,0.17825405299663544,0.02195504494011402,0.22895975410938263,0.07318348437547684,0.00836382620036602,0.11500261723995209,0.0,0.04966022074222565,0.0,0.06011500209569931,0.009409304708242416,0.046001046895980835,0.015682173892855644,0.0486147403717041,0.0,0.04652378335595131,0.0486147403717041,0.04181913286447525,0.0,0.007841086946427822
32,D,0.017391303554177284,0.0,0.4648829400539398,0.23612040281295776,0.0,0.0662207379937172,0.0,0.015384615398943424,0.020735785365104675,0.01872909627854824,0.0,0.008026755414903164,0.018060199916362762,0.025418059900403023,0.0,0.062207356095314026,0.024749163538217545,0.02207357808947563,0.0,0.0
33,K,0.042886316776275635,0.0,0.19877468049526215,0.21715453267097473,0.0,0.06126616895198822,0.0,0.0,0.1422736495733261,0.0,0.0,0.10959836840629578,0.0,0.08917631208896637,0.02518720179796219,0.07828454673290253,0.009530292823910713,0.0,0.0,0.02586793713271618
34,P,0.33949190378189087,0.0,0.0,0.0,0.062355659902095795,0.0,0.0,0.0,0.0,0.0,0.0,0.020785219967365265,0.44803693890571594,0.0,0.0,0.0,0.0969976931810379,0.0,0.0,0.032332561910152435
35,Y,0.07730263471603394,0.0,0.037828948348760605,0.0,0.10690789669752121,0.0,0.0690789446234703,0.04934210702776909,0.0,0.02302631549537182,0.0,0.02631578966975212,0.06743421405553818,0.0,0.021381579339504242,0.11348684132099152,0.03453947231173515,0.07401315867900848,0.0,0.2993420958518982
36,T,0.04469987377524376,0.0,0.05747126415371895,0.05619412660598755,0.0,0.05747126415371895,0.038314174860715866,0.0,0.0,0.039591316133737564,0.0,0.049808427691459656,0.1149425283074379,0.1098339706659317,0.0,0.019157087430357933,0.3550446927547455,0.05747126415371895,0.0,0.0
37,F,0.03454715386033058,0.01493930909782648,0.2044817954301834,0.01027077529579401,0.0961718037724495,0.08309990912675858,0.0,0.030812324956059456,0.013071895577013493,0.2240896373987198,0.013071895577013493,0.028944911435246468,0.024276377633213997,0.013071895577013493,0.14005602896213531,0.037348274141550064,0.013071895577013493,0.01027077529579401,0.0,0.008403361774981022
38,E,0.205441415309906,0.027207106351852417,0.02498611807823181,0.1382565200328827,0.0,0.07107162475585938,0.02387562394142151,0.03720155358314514,0.08384230732917786,0.10827317833900452,0.0,0.007218211889266968,0.02498611807823181,0.02387562394142151,0.0,0.1460299789905548,0.014991670846939087,0.050527483224868774,0.01221543550491333,0.0
39,D,0.0,0.0,0.6153846383094788,0.034427110105752945,0.0,0.0564819797873497,0.0,0.0844540074467659,0.0,0.05110274255275726,0.0,0.03926842287182808,0.0,0.026358257979154587,0.010758472606539726,0.027434105053544044,0.012372243218123913,0.0419580414891243,0.0,0.0
40,Y,0.06572769582271576,0.0,0.0,0.04486176371574402,0.050078246742486954,0.0166927482932806,0.0,0.27856025099754333,0.0,0.16327595710754395,0.006259780842810869,0.0,0.04068857431411743,0.005738132633268833,0.0,0.03025560826063156,0.029733959585428238,0.1131977066397667,0.03495044261217117,0.1199791356921196
41,D,0.0,0.0,0.7696716785430908,0.202188640832901,0.0,0.0,0.0,0.0,0.0,0.0,0.0,0.0,0.0,0.0,0.0,0.01146430429071188,0.0,0.0,0.0,0.016675351187586784
42,V,0.06562499701976776,0.13958333432674408,0.0,0.0,0.03489583358168602,0.0,0.0,0.1380208283662796,0.0,0.05312500149011612,0.02135416679084301,0.008854166604578495,0.00572916679084301,0.0,0.0,0.02604166604578495,0.046875,0.3708333373069763,0.0,0.08906249701976776
43,S,0.04742053151130676,0.0,0.21104742586612701,0.4293903112411499,0.0,0.006253256928175688,0.0,0.01406982820481062,0.0,0.006253256928175688,0.0,0.04742053151130676,0.0,0.02761855162680149,0.019801979884505272,0.14382490515708923,0.03074518032371998,0.016154246404767036,0.0,0.0
44,F,0.02346193976700306,0.028675703331828117,0.0,0.008342023007571697,0.13190823793411255,0.02085505798459053,0.034932222217321396,0.044838372617959976,0.0,0.20020854473114014,0.005735140759497881,0.07924921810626984,0.0,0.0,0.09645464271306992,0.04692387953400612,0.06465067714452744,0.027632951736450195,0.0,0.18613138794898987
45,G,0.13887454569339752,0.01703665405511856,0.0,0.0,0.0,0.1812080591917038,0.05833763629198074,0.01342281885445118,0.016520392149686813,0.027361899614334106,0.0,0.1058337613940239,0.0,0.07950438559055328,0.0,0.2565823495388031,0.0764068141579628,0.015487867407500744,0.0,0.01342281885445118
46,S,0.12403500080108643,0.0,0.23520329594612122,0.008234689012169838,0.0,0.34225425124168396,0.02624806948006153,0.0,0.0,0.0,0.013896036893129349,0.059186823666095734,0.0,0.0375707671046257,0.0,0.14616572856903076,0.0,0.0,0.0,0.0072053526528179646
47,G,0.009264024905860424,0.0,0.05352547764778137,0.03911476954817772,0.0,0.7117859125137329,0.0,0.0,0.0,0.0,0.0,0.11940298229455948,0.0,0.0072053526528179646,0.0,0.046320121735334396,0.0,0.0,0.0,0.013381369411945343
48,V,0.0,0.0,0.0,0.0,0.02983539178967476,0.0,0.0,0.13323044776916504,0.0,0.03600823134183884,0.0555555559694767,0.016460904851555824,0.0,0.0,0.0,0.01337448600679636,0.0,0.7155349850654602,0.0,0.0
49,L,0.0,0.0056584361009299755,0.0,0.0,0.020061727613210678,0.0,0.0,0.04835391044616699,0.0,0.7011317014694214,0.1496913582086563,0.0,0.0,0.0,0.0,0.0,0.0,0.07510288059711456,0.0,0.0
50,T,0.0,0.0,0.0,0.07723996043205261,0.0,0.0,0.03398558124899864,0.007723995950073004,0.026776518672704697,0.0,0.0,0.11534500867128372,0.0,0.04376931115984917,0.0,0.06745623052120209,0.6065911650657654,0.02111225575208664,0.0,0.0
51,V,0.01029336079955101,0.0,0.0,0.0,0.0,0.0,0.0,0.34276890754699707,0.0,0.3921770453453064,0.0,0.0,0.0,0.0,0.0,0.0,0.0,0.2547606825828552,0.0,0.0
52,K,0.01853759028017521,0.0,0.04994850605726242,0.17919670045375824,0.0,0.0,0.0,0.042739443480968475,0.17404738068580627,0.0,0.007209063041955233,0.09783728420734406,0.0,0.0,0.045314110815525055,0.1441812515258789,0.20906281471252441,0.03192584961652756,0.0,0.0
53,L,0.02523171901702881,0.04994850605726242,0.04170957952737808,0.0,0.4351184368133545,0.0,0.0,0.03398558124899864,0.0,0.2368692010641098,0.0,0.0,0.0,0.0,0.0,0.0,0.08084449172019958,0.08496395498514175,0.011328527703881264,0.0
54,G,0.08796296268701553,0.0,0.1213991791009903,0.19855967164039612,0.0,0.30092594027519226,0.0,0.0,0.004115226212888956,0.007201645988970995,0.0,0.03755144029855728,0.11419752985239029,0.01183127611875534,0.0,0.05349794402718544,0.020061727613210678,0.04269547387957573,0.0,0.0
55,G,0.0,0.0,0.09541984647512436,0.08015266805887222,0.0,0.5648854970932007,0.0,0.0,0.09160305559635162,0.0,0.0,0.0,0.10877862572669983,0.0,0.019083969295024872,0.017175571992993355,0.022900763899087906,0.0,0.0,0.0
56,D,0.03932277485728264,0.0,0.2637902796268463,0.08465319126844406,0.0,0.06007646024227142,0.0,0.0,0.025669032707810402,0.0,0.0,0.31840524077415466,0.06389950960874557,0.020207537338137627,0.0,0.09994538873434067,0.02403058484196663,0.0,0.0,0.0
57,L,0.006694129668176174,0.0,0.018022656440734863,0.005664263851940632,0.010813593864440918,0.25798144936561584,0.09371781349182129,0.026776518672704697,0.12100926786661148,0.12924820184707642,0.013388259336352348,0.03192584961652756,0.0,0.008238929323852062,0.12255407124757767,0.030895983800292015,0.007723995950073004,0.08753862231969833,0.0,0.02780638448894024
58,G,0.008234689012169838,0.0,0.006176016293466091,0.013896036893129349,0.0,0.5115800499916077,0.0,0.0,0.013896036893129349,0.01029336079955101,0.0,0.06845084577798843,0.0,0.013381369411945343,0.0,0.2815234065055847,0.06433350592851639,0.008234689012169838,0.0,0.0
59,T,0.0,0.0,0.011322696693241596,0.016469378024339676,0.0,0.0,0.004632012452930212,0.026762738823890686,0.19042716920375824,0.012866700999438763,0.0,0.0,0.0,0.17189912497997284,0.027277406305074692,0.014925372786819935,0.47246524691581726,0.050952136516571045,0.0,0.0
60,Y,0.0,0.013896036893129349,0.0,0.0,0.051981471478939056,0.0,0.0,0.29541945457458496,0.0,0.061245497316122055,0.0,0.0,0.0,0.0,0.0,0.0,0.0,0.05815748870372772,0.019042717292904854,0.5002573132514954
61,V,0.01337448600679636,0.0,0.0,0.0,0.0,0.0,0.0,0.3029835522174835,0.0,0.021604938432574272,0.016460904851555824,0.0,0.0,0.0,0.025205761194229126,0.0,0.0,0.6203703880310059,0.0,0.0
62,I,0.0,0.0,0.0,0.0,0.057642821222543716,0.0,0.0,0.6587750911712646,0.0,0.16675244271755219,0.0,0.0,0.0,0.0,0.0,0.0,0.0,0.11682964116334915,0.0,0.0
63,N,0.0,0.0,0.0,0.0,0.0,0.013388259336352348,0.0,0.0,0.0,0.0,0.0,0.8305870294570923,0.0,0.0,0.0,0.14984552562236786,0.006179196760058403,0.0,0.0,0.0
64,K,0.01800411567091942,0.0,0.0,0.0,0.0,0.0,0.0,0.0,0.5545267462730408,0.038065843284130096,0.0,0.0,0.0,0.025205761194229126,0.2911522686481476,0.01800411567091942,0.02880658395588398,0.004629629664123058,0.021604938432574272,0.0
65,Q,0.0,0.0,0.0,0.0,0.0,0.0,0.102461077272892,0.0,0.024108488112688065,0.0,0.0,0.0,0.0,0.8488196730613708,0.024610748514533043,0.0,0.0,0.0,0.0,0.0
66,T,0.12865792214870453,0.0,0.013118062168359756,0.21644803881645203,0.0,0.03935418650507927,0.0,0.0,0.013622603379189968,0.021190715953707695,0.0,0.0,0.28002017736434937,0.03884964808821678,0.013622603379189968,0.07921291887760162,0.15590313076972961,0.0,0.0,0.0
67,P,0.15244825184345245,0.0,0.0,0.0,0.0,0.0,0.0,0.010600706562399864,0.0,0.0,0.0,0.0,0.7521454095840454,0.011105502024292946,0.0,0.03937405347824097,0.0,0.020696617662906647,0.0,0.013629480265080929
68,N,0.051437217742204666,0.0,0.0,0.0,0.007060009986162186,0.0,0.0,0.039838626980781555,0.0,0.21785174310207367,0.07766011357307434,0.42864346504211426,0.0,0.0,0.0,0.10287443548440933,0.048411495983600616,0.026222893968224525,0.0,0.0
69,K,0.0,0.0,0.0,0.008072653785347939,0.0,0.006054490339010954,0.130171537399292,0.0,0.34460142254829407,0.07517658919095993,0.035317860543727875,0.07164480537176132,0.0,0.09031281620264053,0.1826438009738922,0.01261352188885212,0.0,0.04339051619172096,0.0,0.0
70,Q,0.02423018589615822,0.0,0.0,0.27561837434768677,0.0,0.0,0.0,0.0,0.0,0.0,0.0,0.0,0.0,0.7001514434814453,0.0,0.0,0.0,0.0,0.0,0.0
71,I,0.0,0.0,0.0,0.0,0.029278142377734184,0.0,0.0,0.6405855417251587,0.0,0.2473498284816742,0.010095911100506783,0.0,0.0,0.0,0.0,0.0,0.0,0.07269056141376495,0.0,0.0
72,W,0.0,0.0,0.0,0.0,0.024303797632455826,0.0,0.0,0.02936708927154541,0.0,0.0,0.0,0.0,0.0,0.0,0.0,0.0,0.0,0.0,0.9463291168212891,0.0
73,L,0.016194332391023636,0.0,0.0,0.0,0.0,0.0,0.0,0.06072874367237091,0.0,0.6609311699867249,0.04655870422720909,0.0,0.0025303643196821213,0.0,0.0,0.024291498586535454,0.0,0.15131579339504242,0.008097166195511818,0.029352227225899696
74,S,0.4617721438407898,0.0,0.0,0.0,0.0,0.013670885935425758,0.0,0.024303797632455826,0.0,0.0,0.0,0.0,0.0,0.0,0.0,0.5002531409263611,0.0,0.0,0.0,0.0
75,S,0.0,0.009864364750683308,0.005548705346882343,0.0,0.0,0.016646115109324455,0.0,0.0,0.0,0.0,0.0,0.0,0.0,0.029593095183372498,0.0,0.739210844039917,0.1991368681192398,0.0,0.0,0.0
76,P,0.2005438506603241,0.0,0.0,0.0,0.0,0.0,0.0,0.0,0.0,0.0,0.0,0.0,0.7668253183364868,0.0,0.0,0.0,0.0,0.03263086453080177,0.0,0.0
77,S,0.0,0.05483704060316086,0.0,0.0,0.0,0.0,0.0,0.11588204652070999,0.27211588621139526,0.07242628186941147,0.01293326448649168,0.0072426279075443745,0.0,0.018623901531100273,0.1163993775844574,0.07966890931129456,0.06983962655067444,0.18003104627132416,0.0,0.0
78,S,0.08295165747404099,0.0,0.0,0.021882951259613037,0.04885496199131012,0.03358778730034828,0.0,0.0,0.021374044939875603,0.015267175622284412,0.0,0.0,0.0,0.029516538605093956,0.029516538605093956,0.6844783425331116,0.028498727828264236,0.004071246832609177,0.0,0.0
79,G,0.0,0.0,0.0,0.0,0.0,0.8798783421516418,0.0,0.0,0.02939685806632042,0.0,0.0,0.047643184661865234,0.0,0.027369488030672073,0.01317790150642395,0.0025342118460685015,0.0,0.0,0.0,0.0
80,P,0.01621895655989647,0.0,0.0,0.0,0.0,0.37658387422561646,0.0,0.0,0.0,0.0,0.0,0.0,0.5428282022476196,0.0,0.0,0.05119108036160469,0.01317790150642395,0.0,0.0,0.0
81,K,0.0,0.004052685108035803,0.029381966218352318,0.0,0.1843971610069275,0.0,0.0845998004078865,0.013677811250090599,0.33029383420944214,0.024822695180773735,0.0,0.030395137146115303,0.0,0.0,0.04964539036154747,0.03140830621123314,0.0,0.0511651486158371,0.0,0.16616007685661316
82,R,0.0,0.0,0.0,0.0,0.0,0.0,0.4848024249076843,0.0,0.01621074043214321,0.0,0.0,0.0,0.0,0.03343465179204941,0.43617022037506104,0.0,0.0,0.0,0.0,0.029381966218352318
83,Y,0.0,0.0,0.0,0.0,0.564842939376831,0.0,0.0,0.0,0.0,0.0,0.0,0.0,0.0,0.0,0.0,0.0,0.0,0.0,0.0,0.43515703082084656
84,D,0.03188259154558182,0.0,0.5632591247558594,0.0829959511756897,0.028340080752968788,0.02479756996035576,0.0,0.013663968071341515,0.05566801503300667,0.008097166195511818,0.0,0.04959513992071152,0.0,0.0030364373233169317,0.07034412771463394,0.050607286393642426,0.0025303643196821213,0.015182185918092728,0.0,0.0
85,W,0.0,0.0,0.0,0.011139240115880966,0.22025316953659058,0.0,0.010126582346856594,0.01620253175497055,0.0,0.1129113957285881,0.04860759526491165,0.003544303821399808,0.0,0.0,0.04253164678812027,0.004556961823254824,0.0,0.0,0.22632911801338196,0.3037974536418915
86,T,0.007106598932296038,0.026903552934527397,0.18071065843105316,0.034517765045166016,0.0,0.0,0.0,0.09898477047681808,0.08680202811956406,0.01878172531723976,0.0,0.08020304888486862,0.0,0.04517766460776329,0.04467004910111427,0.015228426083922386,0.14720812439918518,0.20101523399353027,0.0,0.012690355069935322
87,G,0.06734177470207214,0.0,0.16455696523189545,0.11544303596019745,0.0,0.23746836185455322,0.002025316469371319,0.007088607642799616,0.03999999910593033,0.027848102152347565,0.011139240115880966,0.12405063211917877,0.0,0.05316455662250519,0.01620253175497055,0.09569620341062546,0.030886076390743256,0.007088607642799616,0.0,0.0
88,K,0.021398747339844704,0.0073068891651928425,0.04488517716526985,0.05897703394293785,0.0,0.4676409065723419,0.016701461747288704,0.0,0.1696242243051529,0.0,0.0,0.08246346563100815,0.0,0.03601252660155296,0.027139874175190926,0.016701461747288704,0.00626304792240262,0.04488517716526985,0.0,0.0
89,N,0.030441399663686752,0.010147133842110634,0.0943683385848999,0.13952308893203735,0.0,0.01319127343595028,0.019786911085247993,0.018772196024656296,0.1298833042383194,0.035514965653419495,0.0,0.1278538852930069,0.0,0.13140538334846497,0.07407407462596893,0.07864028215408325,0.0649416521191597,0.010147133842110634,0.0,0.021308980882167816
90,W,0.0,0.0,0.0,0.0,0.0,0.0,0.0,0.0,0.0,0.0,0.0,0.0,0.0,0.0,0.0,0.0,0.0,0.0,1.0,0.0
91,V,0.010136847384274006,0.029903700575232506,0.0,0.0,0.025848960503935814,0.0,0.0045615811832249165,0.26406487822532654,0.04967055097222328,0.10593005269765854,0.008109478279948235,0.01317790150642395,0.0,0.0,0.09376583993434906,0.0,0.040547389537096024,0.34313228726387024,0.0,0.011150532402098179
92,Y,0.05522468686103821,0.20628045499324799,0.21765024960041046,0.011911207810044289,0.00487276678904891,0.0,0.041147805750370026,0.0,0.0,0.015701137483119965,0.0,0.013535463251173496,0.0,0.0,0.0,0.11369788646697998,0.011911207810044289,0.0,0.0,0.3080671429634094
93,S,0.012320328503847122,0.0,0.15811088681221008,0.020020533353090286,0.0,0.011806981638073921,0.01591375842690468,0.02156057581305504,0.052361395210027695,0.14989733695983887,0.0,0.1108829602599144,0.0,0.01129363477230072,0.04876796528697014,0.20995892584323883,0.17710472643375397,0.0,0.0,0.0
94,H,0.015197568573057652,0.0,0.0,0.0,0.0,0.013171225786209106,0.2274569422006607,0.0,0.14336372911930084,0.0,0.0,0.030901722609996796,0.0,0.01570415310561657,0.4604863226413727,0.052684903144836426,0.021276595070958138,0.006079027429223061,0.0,0.013677811250090599
95,D,0.011651469394564629,0.0,0.43617022037506104,0.04305977746844292,0.004052685108035803,0.03495440632104874,0.0,0.012158054858446121,0.013171225786209106,0.0,0.0,0.07041539996862411,0.0,0.003546099178493023,0.013677811250090599,0.2213779091835022,0.13171225786209106,0.004052685108035803,0.0,0.0
96,G,0.028556859120726585,0.0,0.023457419127225876,0.045385006815195084,0.0,0.6812850832939148,0.008159102872014046,0.0,0.02141764387488365,0.0,0.0,0.14533402025699615,0.0,0.01784803718328476,0.016828149557113647,0.011728709563612938,0.0,0.0,0.0,0.0
97,V,0.06484296172857285,0.0,0.04609929025173187,0.16514691710472107,0.009118541143834591,0.0476190485060215,0.04711246117949486,0.0,0.09422492235898972,0.040526848286390305,0.013171225786209106,0.0,0.013171225786209106,0.046605877578258514,0.04964539036154747,0.10486321896314621,0.06382978707551956,0.1940222829580307,0.0,0.0
98,S,0.013677811250090599,0.0,0.04913880303502083,0.26747721433639526,0.0,0.0045592705719172955,0.0,0.0,0.062310028821229935,0.020263424143195152,0.0,0.05724417418241501,0.044579535722732544,0.018743667751550674,0.03951367735862732,0.23606888949871063,0.18642351031303406,0.0,0.0,0.0
99,L,0.0,0.0,0.0,0.0,0.26697060465812683,0.0,0.0,0.010131712071597576,0.0,0.7228976488113403,0.0,0.0,0.0,0.0,0.0,0.0,0.0,0.0,0.0,0.0
100,H,0.0030410541221499443,0.0,0.04865686595439911,0.007095793262124062,0.1429295539855957,0.07399898767471313,0.2235174924135208,0.011657374911010265,0.03091738559305668,0.0582868717610836,0.0886974185705185,0.021287379786372185,0.008616320788860321,0.0,0.03091738559305668,0.03699949383735657,0.062341611832380295,0.0207805372774601,0.08565635979175568,0.044602129608392715
101,E,0.10425101220607758,0.0,0.13410931825637817,0.3962550461292267,0.0,0.02732793614268303,0.025809716433286667,0.005566801410168409,0.018218623474240303,0.0,0.0,0.014170040376484394,0.023279352113604546,0.09362348169088364,0.027834007516503334,0.08502024412155151,0.029352227225899696,0.015182185918092728,0.0,0.0
102,L,0.05319149047136307,0.024316109716892242,0.0,0.0,0.1155015230178833,0.004052685108035803,0.005572441965341568,0.07750760018825531,0.0749746710062027,0.4513677954673767,0.060283686965703964,0.009625126607716084,0.0,0.0020263425540179014,0.007092198356986046,0.0,0.011651469394564629,0.08662614226341248,0.0,0.01621074043214321
103,L,0.0,0.0,0.0,0.0,0.050684235990047455,0.0,0.0,0.022807907313108444,0.0,0.8408514857292175,0.007602635771036148,0.0,0.0,0.0,0.0,0.0,0.0,0.07805372774600983,0.0,0.0
104,A,0.18977732956409454,0.0,0.01771255023777485,0.16548582911491394,0.0,0.004048583097755909,0.0,0.007085020188242197,0.0885627493262291,0.015688259154558182,0.011133602820336819,0.12753036618232727,0.0,0.10020242631435394,0.03694332018494606,0.14220647513866425,0.07591093331575394,0.01771255023777485,0.0,0.0
105,A,0.11094225198030472,0.0,0.12462005764245987,0.20415399968624115,0.0,0.02583586610853672,0.0,0.0,0.11955420672893524,0.018743667751550674,0.0,0.010131712071597576,0.0,0.1119554191827774,0.17933130264282227,0.054711245000362396,0.030395137146115303,0.006079027429223061,0.0,0.003546099178493023
106,E,0.16261398792266846,0.010638297535479069,0.03951367735862732,0.6124619841575623,0.008105370216071606,0.0,0.0,0.028368793427944183,0.0,0.025329280644655228,0.003546099178493023,0.0,0.0,0.0,0.0,0.03444782271981239,0.0,0.03394123539328575,0.0,0.041033435612916946
107,L,0.09569620341062546,0.09569620341062546,0.0,0.0,0.04607594758272171,0.0,0.0,0.2015189826488495,0.0,0.4146835505962372,0.030886076390743256,0.0,0.0,0.0,0.0,0.007088607642799616,0.03949367254972458,0.06278481334447861,0.0,0.0060759494081139565
108,T,0.0310748852789402,0.02139582298696041,0.008660214021801949,0.0483953133225441,0.01833927631378174,0.09067753702402115,0.010697911493480206,0.0,0.04177279770374298,0.07182883471250534,0.0,0.044829342514276505,0.034640856087207794,0.024961793795228004,0.056036677211523056,0.22669383883476257,0.23535405099391937,0.010697911493480206,0.004584819078445435,0.01935812458395958
109,K,0.12891627848148346,0.0,0.033898305147886276,0.1869542896747589,0.0,0.02722136676311493,0.0,0.053415510803461075,0.20082177221775055,0.055469952523708344,0.010785824619233608,0.008731381967663765,0.0,0.08936826139688492,0.07190549373626709,0.0,0.058551616966724396,0.06625577807426453,0.0,0.007704160176217556
110,A,0.25052741169929504,0.0,0.015295358374714851,0.0,0.0,0.006329114083200693,0.06329113990068436,0.14609704911708832,0.012130801565945148,0.06962025165557861,0.016877636313438416,0.03481012582778931,0.0,0.2858649790287018,0.020042194053530693,0.0,0.027953585609793663,0.04377637058496475,0.007383966352790594,0.0
111,L,0.22364751994609833,0.03011712245643139,0.0,0.0,0.12381483614444733,0.03680981695652008,0.0,0.03346347063779831,0.0,0.3134411573410034,0.0,0.0,0.0,0.0,0.0,0.09481316059827805,0.07975459843873978,0.06413831561803818,0.0,0.0
112,K,0.014207649976015091,0.0,0.05737704783678055,0.046994537115097046,0.0,0.5420765280723572,0.0,0.0,0.14754098653793335,0.0,0.0,0.11693988740444183,0.044262293726205826,0.0,0.0,0.03060109354555607,0.0,0.0,0.0,0.0
113,T,0.03599755838513374,0.0061012813821434975,0.01647345907986164,0.2507626712322235,0.0,0.020744355395436287,0.0,0.08358755707740784,0.05186089128255844,0.0317266620695591,0.020744355395436287,0.029286149889230728,0.0,0.0317266620695591,0.08175716549158096,0.028676021844148636,0.23306894302368164,0.06772422045469284,0.0,0.009762049652636051
114,K,0.07017543911933899,0.00939849577844143,0.17293232679367065,0.19298245012760162,0.0,0.0,0.036340851336717606,0.00501253129914403,0.2023809552192688,0.004385964944958687,0.0,0.021929824724793434,0.12468671798706055,0.06453634053468704,0.01879699155688286,0.00939849577844143,0.06704260408878326,0.0,0.0,0.0
115,L,0.008928571827709675,0.0,0.0,0.0,0.05612244829535484,0.0,0.0,0.18431122601032257,0.0,0.35522958636283875,0.010204081423580647,0.0,0.0,0.0,0.0,0.0,0.012755102477967739,0.37244898080825806,0.0,0.0
116,D,0.009504412300884724,0.0,0.30210456252098083,0.14663951098918915,0.0,0.008146639913320541,0.02376103214919567,0.01765105314552784,0.08350305259227753,0.0,0.0,0.10386965423822403,0.0,0.05634758993983269,0.0196877121925354,0.1364562064409256,0.053632043302059174,0.03869653865695,0.0,0.0
117,L,0.0,0.011180992238223553,0.0,0.0,0.49965059757232666,0.0,0.0,0.020265549421310425,0.0,0.3612858057022095,0.0,0.0,0.0,0.0,0.0,0.0,0.0,0.04332634434103966,0.06429070234298706,0.0
118,S,0.0705329179763794,0.0,0.043887145817279816,0.037617553025484085,0.06583072245121002,0.0,0.0,0.0,0.021943572908639908,0.10658307373523712,0.03291536122560501,0.03134796395897865,0.0,0.04231974855065346,0.0,0.5250783562660217,0.021943572908639908,0.0,0.0,0.0
119,S,0.10071942210197449,0.0,0.05515587702393532,0.0,0.0,0.0,0.0,0.0,0.11270983517169952,0.0,0.0,0.03357314318418503,0.0,0.0,0.11270983517169952,0.5635491609573364,0.0,0.0,0.02158273383975029,0.0
120,L,0.0,0.10287081450223923,0.0,0.0,0.0,0.0,0.0,0.0,0.0,0.8971291780471802,0.0,0.0,0.0,0.0,0.0,0.0,0.0,0.0,0.0,0.0
121,A,0.5933504104614258,0.0,0.0,0.0,0.0,0.0,0.0,0.03324808180332184,0.0,0.03580562770366669,0.0,0.0,0.22762148082256317,0.0,0.0,0.10997442156076431,0.0,0.0,0.0,0.0
122,Y,0.0,0.0,0.0,0.0,0.05115089565515518,0.0,0.1611253172159195,0.0,0.0,0.0,0.0,0.0,0.0,0.0,0.0,0.0,0.0,0.0,0.0,0.7877237796783447
123,S,0.0,0.12020460516214371,0.0,0.0,0.0,0.05882352963089943,0.0,0.0,0.0,0.0,0.0,0.0,0.0,0.0,0.0,0.8209718465805054,0.0,0.0,0.0,0.0
124,G,0.0,0.0,0.0,0.0,0.0,0.868852436542511,0.04590163752436638,0.0,0.0,0.0,0.0,0.0,0.0,0.08524589985609055,0.0,0.0,0.0,0.0,0.0,0.0
125,K,0.0,0.0,0.0,0.0,0.0,0.0,0.0,0.0,0.9106529355049133,0.0,0.0,0.0,0.0,0.0,0.08934707939624786,0.0,0.0,0.0,0.0,0.0
126,D,0.0,0.0,0.5877550840377808,0.05306122452020645,0.0,0.359183669090271,0.0,0.0,0.0,0.0,0.0,0.0,0.0,0.0,0.0,0.0,0.0,0.0,0.0,0.0
127,A,1.0,0.0,0.0,0.0,0.0,0.0,0.0,0.0,0.0,0.0,0.0,0.0,0.0,0.0,0.0,0.0,0.0,0.0,0.0,0.0
