RES_NUM,AMINO_ACID,A,C,D,E,F,G,H,I,K,L,M,N,P,Q,R,S,T,V,W,Y
1,M,0.0,0.0,0.0,0.0,0.0,0.0,0.0,0.0,0.0,0.0,1.0,0.0,0.0,0.0,0.0,0.0,0.0,0.0,0.0,0.0
2,C,0.0,1.0,0.0,0.0,0.0,0.0,0.0,0.0,0.0,0.0,0.0,0.0,0.0,0.0,0.0,0.0,0.0,0.0,0.0,0.0
3,D,0.0,0.0,0.16518649458885193,0.82294100522995,0.0,0.0,0.0,0.0,0.0,0.0,0.0,0.01187248807400465,0.0,0.0,0.0,0.0,0.0,0.0,0.0,0.0
4,K,0.01575121097266674,0.0,0.03886541724205017,0.4097800552845001,0.0,0.0,0.03401888906955719,0.0,0.17410214245319366,0.0,0.0,0.010531875304877758,0.0,0.2512426972389221,0.01795700192451477,0.0029203430749475956,0.04483037069439888,0.0,0.0,0.0
5,E,0.09383140504360199,0.0,0.03450489044189453,0.2537845969200134,0.0,0.0005285212537273765,0.009135867469012737,0.0,0.11538752168416977,0.0007172788609750569,0.0014156820252537727,0.0118728531524539,0.008097700774669647,0.07527653127908707,0.3302125334739685,0.05504171550273895,0.008777228184044361,0.0007927818805910647,0.0,0.0006229000864550471
6,F,0.0006600369815714657,0.0,0.0,0.0,0.12349291890859604,0.0,0.0,0.08500175923109055,0.0,0.7250506281852722,0.017633987590670586,0.0,0.0,0.0,0.0,0.0,0.0003190178540535271,0.01580788567662239,0.016203908249735832,0.015829887241125107
7,M,0.012336477637290955,0.019014650955796242,0.0,0.049993135035037994,0.12705199420452118,0.0033537959679961205,0.16923922300338745,0.07233216613531113,0.017072979360818863,0.37619394063949585,0.02986055240035057,0.0029125071596354246,0.002569282427430153,0.012571832165122032,0.02045619487762451,0.0028242492116987705,0.002226057695224881,0.04376605898141861,0.01412124652415514,0.022103672847151756
8,W,0.05227120593190193,0.001935635576955974,0.08744731545448303,0.19935236871242523,0.037229329347610474,0.007878217846155167,0.03423542529344559,0.009886213578283787,0.08609960228204727,0.04012373462319374,0.011677129194140434,0.033575136214494705,0.0024150218814611435,0.09196078032255173,0.07738019526004791,0.05352846533060074,0.09184319525957108,0.020477939397096634,0.048933591693639755,0.011749489232897758
9,A,0.843388020992279,0.02667025849223137,0.0024582436308264732,0.001599541981704533,0.002197265625,0.007879849523305893,0.012973127886652946,0.017855940386652946,0.001195447170175612,0.020928744226694107,0.010388604365289211,0.002062567276880145,0.004200902301818132,0.0026181978173553944,0.0007829337264411151,0.02193056233227253,0.004941742867231369,0.004655509255826473,0.0002778151829261333,0.01099474634975195
10,L,0.39362645149230957,0.04510901868343353,0.0001888093538582325,0.00028731857310049236,0.0009604649385437369,0.00017239114094991237,0.00011492743215057999,0.13945622742176056,0.00015597294259350747,0.04377914220094681,0.012617390602827072,0.00011492743215057999,0.00047612792695872486,0.006321008782833815,0.00018060025468003005,0.026966901496052742,0.03233565390110016,0.29150521755218506,0.0,0.005631444044411182
11,K,0.1035863533616066,0.006216449663043022,0.026388194411993027,0.10998517274856567,0.010260313749313354,0.011465543881058693,0.047035690397024155,0.02014002948999405,0.09423789381980896,0.029512278735637665,0.009364320896565914,0.02475479058921337,0.00014272461703512818,0.12792089581489563,0.2344886064529419,0.07499385625123978,0.010720204561948776,0.025634925812482834,0.009570478461682796,0.023581277579069138
12,N,0.09178932756185532,0.002364190760999918,0.04772051423788071,0.1102360412478447,0.004909084178507328,0.021390656009316444,0.03389677405357361,0.008078906685113907,0.07069984823465347,0.029702970758080482,0.003674283856526017,0.10089221596717834,0.00011293905117781833,0.04940706863999367,0.09563678503036499,0.1484019160270691,0.09548620134592056,0.04368482530117035,0.0013326808111742139,0.04058276489377022
13,G,0.04224292188882828,0.005094948224723339,0.022099606692790985,0.024801146239042282,0.000329630944179371,0.687345027923584,0.0025080617051571608,0.0009029021603055298,0.020623432472348213,0.0011250447714701295,0.0007595843635499477,0.09769974648952484,0.004278036765754223,0.012110354378819466,0.03446793183684349,0.028520243242383003,0.0018702973611652851,0.002271587261930108,0.0004227875324431807,0.010526692494750023
14,D,0.005963763687759638,0.008245551027357578,0.4164198040962219,0.04154539108276367,0.007804751396179199,0.0019447054946795106,0.0481768399477005,0.005302563775330782,0.07194113731384277,0.007026869338005781,0.0015622468199580908,0.23243120312690735,0.0004278352134861052,0.0348750539124012,0.05025118961930275,0.02360224351286888,0.0022169642616063356,0.02493760734796524,0.0002074352523777634,0.015116844326257706
15,L,0.03832545131444931,0.012559755705296993,0.003306189551949501,0.03419114276766777,0.059636883437633514,0.0005395300104282796,0.017917415127158165,0.12537798285484314,0.012954993173480034,0.2680397629737854,0.08371497690677643,0.010495739988982677,0.011913575232028961,0.005439214874058962,0.008801867254078388,0.01665641926229,0.06665704399347305,0.17021544277668,0.002333780750632286,0.05092284828424454
16,D,0.08938630670309067,0.0019668196327984333,0.12305992096662521,0.21752667427062988,0.012472369708120823,0.09039051085710526,0.005116107873618603,0.001289425534196198,0.12038599699735641,0.022199509665369987,0.0014795712195336819,0.04534380882978439,0.048528749495744705,0.054268769919872284,0.05384688451886177,0.0500558540225029,0.040815964341163635,0.01315570529550314,0.0008081192499957979,0.007902930490672588
17,E,0.11790390312671661,0.02186097390949726,0.01884927600622177,0.07692620903253555,0.009953719563782215,0.032477498054504395,0.003569850465282798,0.10212446749210358,0.06558873504400253,0.07703085988759995,0.03750087320804596,0.010546756908297539,0.0011628177016973495,0.07746110111474991,0.0324251726269722,0.03786715865135193,0.19637666642665863,0.07373427599668503,0.0013430544640868902,0.00529663497582078
18,V,0.1324477642774582,0.020720787346363068,0.0,0.0,0.02907993271946907,0.0004272327059879899,0.0003316675138194114,0.09989937394857407,0.0006408490589819849,0.2728724181652069,0.02237912453711033,0.0,0.00015740151866339147,0.00014615856343880296,0.00011242966138524935,0.008825728669762611,0.014717042446136475,0.3944425880908966,0.0001855089358286932,0.0026139896363019943
19,K,0.02657286636531353,0.014014380984008312,0.021832872182130814,0.14818458259105682,0.0018226475222036242,0.012903010472655296,0.01582035794854164,0.012208404019474983,0.1993076205253601,0.09848964959383011,0.018754376098513603,0.014525611884891987,0.0024505718611180782,0.11743295937776566,0.17574100196361542,0.0394536517560482,0.043604619801044464,0.024616854265332222,0.0016892830608412623,0.01057469006627798
20,D,0.057751625776290894,0.002021663123741746,0.06301123648881912,0.07740942388772964,0.033310871571302414,0.04041134566068649,0.010782202705740929,0.029568877071142197,0.1615905910730362,0.1287892460823059,0.04103592410683632,0.039605967700481415,0.0007286752806976438,0.061959315091371536,0.09122686088085175,0.041605714708566666,0.06369607895612717,0.01019049622118473,0.0019394815899431705,0.043364398181438446
21,Y,0.05159345269203186,0.05003245547413826,0.0009762953268364072,0.0009709310834296048,0.050579607486724854,0.00012874223466496915,0.016822319477796555,0.06411900371313095,0.00038086247514002025,0.6450039744377136,0.03850466012954712,0.0024621954653412104,0.00010192094487138093,0.0038622673600912094,0.0011855014599859715,0.005096047185361385,0.007579699624329805,0.0355704091489315,0.004742005839943886,0.020287631079554558
22,V,0.02042882889509201,0.0038842817302793264,0.0013813086552545428,0.0002908018359448761,0.023653613403439522,0.0006335325888358057,0.008594232611358166,0.17491210997104645,0.003801195416599512,0.6269428133964539,0.011346464045345783,0.0017500038957223296,0.0001194364667753689,0.003484429093077779,0.004517814144492149,0.004554164595901966,0.005603128112852573,0.06820860505104065,0.009767825715243816,0.026125429198145866
23,A,0.11914803832769394,0.009270885027945042,0.07979930937290192,0.19154705107212067,0.0005893597262911499,0.018126655369997025,0.009204261936247349,0.002613682299852371,0.11036914587020874,0.028576260432600975,0.04966508969664574,0.05168941244482994,0.006544455885887146,0.08846545964479446,0.06366622447967529,0.10913404822349548,0.03181517496705055,0.00859440304338932,0.005550231318920851,0.015630844980478287
24,K,0.1056976318359375,0.008035317063331604,0.04011666029691696,0.09815172851085663,0.004604451823979616,0.040900714695453644,0.062349867075681686,0.006936641409993172,0.1253339797258377,0.04743783921003342,0.017498914152383804,0.0946359634399414,0.012430021539330482,0.07670756429433823,0.05238188058137894,0.11168042570352554,0.028046203777194023,0.006292417645454407,0.03878825902938843,0.021973522379994392
25,G,0.039053212851285934,0.007970445789396763,0.030683258548378944,0.04725054278969765,0.0030234428122639656,0.5766391158103943,0.009085125289857388,0.003950697835534811,0.08803988993167877,0.017090097069740295,0.002998781856149435,0.053401004523038864,0.018091334030032158,0.013183788396418095,0.0292529184371233,0.046520575881004333,0.005445156246423721,0.0038520535454154015,0.00031566122197546065,0.004152918234467506
26,E,0.44779980182647705,0.02461756393313408,0.03957035019993782,0.035245515406131744,0.019697828218340874,0.02634560875594616,0.007757318206131458,0.06036827340722084,0.019239848479628563,0.05133616551756859,0.00803116150200367,0.011213408783078194,0.03564683720469475,0.027601510286331177,0.02845137007534504,0.040344662964344025,0.022889519110322,0.07307837903499603,0.0005996222607791424,0.020165249705314636
27,D,0.01878485269844532,0.007796193473041058,0.36148855090141296,0.06012249365448952,0.00628445390611887,0.022379232570528984,0.01914566196501255,0.007718551438301802,0.033084724098443985,0.027942068874835968,0.0020141308195888996,0.20063209533691406,0.018282461911439896,0.04926171526312828,0.02633441798388958,0.08847560733556747,0.02970043756067753,0.011692007072269917,0.001703561982139945,0.007156786974519491
28,V,0.05233803763985634,0.007483862806111574,0.0008597532869316638,0.0007172035402618349,0.009773568250238895,0.0016348676290363073,0.0012161277700215578,0.20182819664478302,0.0013764961622655392,0.14084362983703613,0.011065426282584667,0.003514742711558938,0.1466258019208908,0.0006548379897139966,0.0020090609323233366,0.0026772627606987953,0.019578319042921066,0.38961970806121826,0.0010646686423569918,0.00511842779815197
29,N,0.01672612503170967,0.00927808228880167,0.16068191826343536,0.060400139540433884,0.005882586352527142,0.009851347655057907,0.03977140039205551,0.0014860806986689568,0.013648129999637604,0.018009357154369354,0.004136331379413605,0.5318934321403503,0.0006350018084049225,0.008815060369670391,0.020681656897068024,0.06106600910425186,0.029800988733768463,0.0030338976066559553,0.0003748274757526815,0.0038276498671621084
30,R,0.19142049551010132,0.09061991423368454,0.023075606673955917,0.07076804339885712,0.034823186695575714,0.007436424493789673,0.02793903648853302,0.07290435582399368,0.0481419637799263,0.041844334453344345,0.024698175489902496,0.005514170508831739,0.00393013097345829,0.04967891052365303,0.03217313066124916,0.059136055409908295,0.06518537551164627,0.08108142763376236,0.004221251700073481,0.06540799885988235
31,T,0.07261763513088226,0.01264356728643179,0.003420015797019005,0.04356218874454498,0.005199263337999582,0.00850597769021988,0.008493389002978802,0.025308115407824516,0.12017893046140671,0.04326005280017853,0.013436675071716309,0.005451043602079153,0.09033037722110748,0.08833292126655579,0.13493745028972626,0.07535364478826523,0.10074149072170258,0.12226031720638275,0.000923194398637861,0.025043746456503868
32,L,0.014576387591660023,0.011142660863697529,0.483936071395874,0.018002137541770935,0.014380971901118755,0.034516725689172745,0.005886388011276722,0.008626190014183521,0.025128815323114395,0.011214446276426315,0.008873450569808483,0.15702617168426514,0.02091342769563198,0.04499337822198868,0.01601209118962288,0.06301546096801758,0.05379105731844902,0.0026321245823055506,0.0007298163836821914,0.004602230153977871
33,E,0.05065995827317238,0.01878795027732849,0.07896462827920914,0.12769898772239685,0.017303479835391045,0.034959856420755386,0.03136567398905754,0.02364412508904934,0.07164201140403748,0.018734248355031013,0.008024579845368862,0.07865392416715622,0.06049121916294098,0.0423898808658123,0.07887640595436096,0.13545507192611694,0.024108262732625008,0.030548639595508575,0.0015343364793807268,0.06615675240755081
34,G,0.02473950944840908,0.031194929033517838,0.1180274561047554,0.07469949126243591,0.04114484041929245,0.03255515173077583,0.03875130042433739,0.004941138438880444,0.10558630526065826,0.06829667836427689,0.028448181226849556,0.1559746414422989,0.008890291675925255,0.03715435415506363,0.0642160102725029,0.06012783199548721,0.04764910787343979,0.010682628490030766,0.015992004424333572,0.030928144231438637
35,G,0.007895824499428272,0.0022112776059657335,0.04279975965619087,0.02529195137321949,0.00421408424153924,0.7047944664955139,0.013494749553501606,0.0016156472265720367,0.022630229592323303,0.020850783213973045,0.0007445378578267992,0.03644140809774399,0.0015746976714581251,0.031702421605587006,0.03389880806207657,0.011007992550730705,0.005945134907960892,0.013546866364777088,0.012817219831049442,0.00652215164154768
36,R,0.04142652079463005,0.023631813004612923,0.04321151226758957,0.07488498836755753,0.02711714617908001,0.032873284071683884,0.02401825413107872,0.012712082825601101,0.07533767819404602,0.06665562838315964,0.03915939852595329,0.06955945491790771,0.002090464113280177,0.12618601322174072,0.15321114659309387,0.03555997088551521,0.02540208399295807,0.01208641566336155,0.051437195390462875,0.06343895941972733
37,K,0.017181577160954475,0.0030514129903167486,0.001492777606472373,0.0031172707676887512,0.00156961171887815,0.013270353898406029,0.006673594005405903,0.004364911001175642,0.005349119659513235,0.010138447396457195,0.004921043757349253,0.056747499853372574,0.0091981440782547,0.007478523068130016,0.01361793652176857,0.14532263576984406,0.6867105960845947,0.0017342562787234783,0.00023781995696481317,0.007822447456419468
38,P,0.3629441261291504,0.017287172377109528,0.0005261469632387161,0.0006594855803996325,0.006656119599938393,0.0037478962913155556,0.0007964279502630234,0.030188584700226784,0.00016577233327552676,0.0669684186577797,0.001618082169443369,0.0002198285365011543,0.41839855909347534,0.00024505474721081555,0.0002594697580207139,0.03985743597149849,0.0010018415050581098,0.04682347923517227,0.0009117478621192276,0.0007243530126288533
39,L,0.003450645599514246,0.0012989395763725042,0.0,0.0,0.017102105543017387,0.00013673047942575067,0.0006512688705697656,0.06150353327393532,0.0,0.8457068204879761,0.020045408979058266,0.0,0.0006080908351577818,8.27579278848134e-05,0.0,0.003375084139406681,0.0031196139752864838,0.041706398129463196,0.0,0.0012125835055485368
40,H,0.015039107762277126,0.01045041810721159,0.005699900910258293,0.02786298654973507,0.02431718073785305,0.02376697026193142,0.6526440978050232,0.02731277607381344,0.0023087295703589916,0.03572777286171913,0.06361593306064606,0.0171752218157053,0.000773172709159553,0.02399352751672268,0.008170457556843758,0.022835565730929375,0.014747819863259792,0.009101861156523228,0.0012658454943448305,0.013190685771405697
41,Y,0.08090054243803024,0.020744649693369865,0.0067195408046245575,0.021618299186229706,0.06451334804296494,0.004213644657284021,0.04915798828005791,0.13314326107501984,0.006805827375501394,0.2319517880678177,0.03134707361459732,0.0073487116023898125,0.003908047452569008,0.015261879190802574,0.026716377586126328,0.015006614848971367,0.032519128173589706,0.08032889664173126,0.057143062353134155,0.11065131425857544
42,A,0.8147518634796143,0.021640852093696594,6.827901233918965e-05,0.00012937076098751277,0.010921048000454903,0.0015021382132545114,0.00034139506169594824,0.019362488761544228,0.00023358609178103507,0.024174362421035767,0.0036259747575968504,0.00010062169894808903,0.000927157059777528,0.00022639882809016854,9.34344352572225e-05,0.037539079785346985,0.004236892331391573,0.03003198280930519,0.0006540410104207695,0.029439033940434456
43,A,0.4576795995235443,0.1185799241065979,9.002423757920042e-05,0.0,0.008116585202515125,0.0031184395775198936,0.00015124071796890348,0.08787085115909576,0.00018725040717981756,0.053020674735307693,0.006686999928206205,0.0012279305374249816,9.722617687657475e-05,6.84184196870774e-05,0.00011523102148203179,0.0721094086766243,0.027903912588953972,0.16179876029491425,9.362520358990878e-05,0.0010838918387889862
44,D,0.10087674856185913,0.022465404123067856,0.027399377897381783,0.10770592093467712,0.013769814744591713,0.06810107082128525,0.03757300227880478,0.055287837982177734,0.0404607430100441,0.11794427037239075,0.04051828384399414,0.0184340737760067,0.0010177220683544874,0.05763615295290947,0.10294096171855927,0.06619148701429367,0.04151802510023117,0.018006127327680588,0.009788831695914268,0.05236413702368736
45,C,0.07053229957818985,0.017648395150899887,0.016682347282767296,0.03145422786474228,0.02626352198421955,0.042286217212677,0.06505322456359863,0.007212916389107704,0.07480021566152573,0.0837721973657608,0.023992588743567467,0.1501699537038803,0.0004902331857010722,0.042480867356061935,0.10268222540616989,0.07476776838302612,0.07185160368680954,0.02450084500014782,0.014602460898458958,0.058755889534950256
46,G,0.050026267766952515,0.006531267426908016,0.06587404012680054,0.06367176026105881,0.0008348507108166814,0.5211015939712524,0.005214218515902758,0.0004498118069022894,0.025164270773530006,0.0023498167283833027,0.003864782862365246,0.09683548659086227,0.0049407328478991985,0.02893909253180027,0.0743916779756546,0.027438519522547722,0.01713602989912033,0.0008096612291410565,0.0004965921980328858,0.003929555881768465
47,Q,0.02345006912946701,0.020852072164416313,0.11798495799303055,0.020318137481808662,0.014100859872996807,0.004812567960470915,0.25841304659843445,0.009850893169641495,0.02764986827969551,0.018408162519335747,0.008532185107469559,0.16026604175567627,0.009076868183910847,0.05908744037151337,0.08001476526260376,0.09734072536230087,0.023801248520612717,0.007600488606840372,0.0019028098322451115,0.0365368127822876
48,L,0.07573200017213821,0.002200220013037324,0.029570383951067924,0.09296467155218124,0.026868484914302826,0.02288013882935047,0.02886803261935711,0.09896331280469894,0.05519900470972061,0.18681086599826813,0.01583155058324337,0.01927521824836731,0.05247918888926506,0.020862672477960587,0.03994080051779747,0.05744939297437668,0.06367021054029465,0.08871114999055862,0.0031068252865225077,0.01861586794257164
49,E,0.051194123923778534,0.0009495655540376902,0.1834453046321869,0.27502283453941345,0.0057332259602844715,0.032077398151159286,0.020392367616295815,0.002820030553266406,0.0755101665854454,0.013992654159665108,0.006406879983842373,0.0708196684718132,0.03183731809258461,0.051588281989097595,0.06255307793617249,0.06474962085485458,0.029923856258392334,0.01397473830729723,0.0029024456162005663,0.004106422886252403
50,I,0.08137845993041992,0.1138511523604393,0.001187589019536972,0.004542885348200798,0.019076542928814888,0.005261877551674843,0.004821897484362125,0.21450647711753845,0.0035949605517089367,0.17101997137069702,0.10907575488090515,0.00350553379394114,0.008127114735543728,0.006467352155596018,0.001269861706532538,0.015392154455184937,0.03843209519982338,0.18850471079349518,0.00047217393876053393,0.009511442855000496
51,L,0.10244423896074295,0.02817636914551258,0.0,0.0029542625416070223,0.012063834816217422,0.0020422323141247034,0.00017525286239106208,0.14079958200454712,0.00017882944666780531,0.14205138385295868,0.03328731283545494,0.0,0.00018240604549646378,0.00011087425809819251,9.656790643930435e-05,0.01012174692004919,0.03286885470151901,0.4859726130962372,7.153178012231365e-05,0.006402094382792711
52,E,0.03896113112568855,0.006762942764908075,0.07254695892333984,0.1921805888414383,0.0007689226767979562,0.010528875514864922,0.009309329092502594,0.0059940204955637455,0.20108579099178314,0.01668025739490986,0.003329613944515586,0.04170779511332512,0.005600618198513985,0.09927685558795929,0.1563630998134613,0.09918387234210968,0.022019797936081886,0.007167074363678694,0.0010228459723293781,0.009509606286883354
53,F,0.10127057880163193,0.007220074534416199,0.006687241140753031,0.030836405232548714,0.07924558967351913,0.00039694318547844887,0.024846497923135757,0.04521218687295914,0.024013275280594826,0.3707449436187744,0.046878632158041,0.0022421926259994507,0.002986014122143388,0.01050290185958147,0.014103999361395836,0.02885526604950428,0.041650425642728806,0.06682591885328293,0.012133587151765823,0.08334734290838242
54,L,0.003955824300646782,0.00626818323507905,8.990509377326816e-05,0.0,0.04556749761104584,0.00021577223378699273,0.0,0.04843367263674736,0.000783972442150116,0.8463917374610901,0.012770120054483414,0.0001330595405306667,0.0005825849948450923,0.00018340640235692263,0.00012586714001372457,0.0012442865408957005,0.001625484088435769,0.020070413127541542,0.0001186747249448672,0.011439524590969086
55,L,0.02068854495882988,0.008831261657178402,0.00027184118516743183,0.003294286085292697,0.01227935217320919,0.0002861486282199621,0.0035124742425978184,0.20606635510921478,0.0016203165287151933,0.5753912329673767,0.01709738001227379,0.0002968791814055294,0.00031118662445805967,0.0017562371212989092,0.002189036924391985,0.006177233532071114,0.0065528033301234245,0.12824107706546783,0.0008441384416073561,0.004292229190468788
56,L,0.062368590384721756,0.00344346696510911,0.11846528202295303,0.2502288520336151,0.002170492662116885,0.030458413064479828,0.00917185191065073,0.004326682537794113,0.12033183127641678,0.015654724091291428,0.0017127940664067864,0.04034184291958809,0.004015590529888868,0.12314596027135849,0.10053279250860214,0.08559322357177734,0.01790030673146248,0.0062754773534834385,0.0014338840264827013,0.002427948173135519
57,K,0.1530999094247818,0.014932738617062569,0.018476402387022972,0.0328119732439518,0.020282205194234848,0.0062970672734081745,0.1369263380765915,0.0067154411226511,0.12820842862129211,0.05709555372595787,0.018340520560741425,0.12456821650266647,0.0003146745730191469,0.04858861491084099,0.08713266998529434,0.03121357038617134,0.013466641306877136,0.020182082429528236,0.023343130946159363,0.05800382047891617
58,G,0.020387619733810425,0.009555556811392307,0.026646144688129425,0.059189748018980026,0.0004157761577516794,0.6765334606170654,0.008607295341789722,0.001513571129180491,0.03302867338061333,0.0021080579608678818,0.0034356240648776293,0.06424105912446976,0.012914590537548065,0.009449789300560951,0.029538342729210854,0.030596017837524414,0.006356998346745968,0.003256913274526596,0.00011306193482596427,0.0021117052529007196
59,A,0.6449340581893921,0.02161507122218609,0.003855899441987276,0.0060813045129179955,0.013973045162856579,0.02056112512946129,0.01949983462691307,0.02350262552499771,0.007480444852262735,0.05144137144088745,0.003991774283349514,0.005658991634845734,0.0170908160507679,0.012379273772239685,0.0018691931618377566,0.04276743531227112,0.013877565972507,0.08253461122512817,0.0005655319546349347,0.00632000295445323
60,D,0.03516177833080292,0.004651994444429874,0.4184861183166504,0.03605569154024124,0.006607656367123127,0.008136428892612457,0.009526554495096207,0.008636290207505226,0.03217720612883568,0.04026620462536812,0.0011675594141706824,0.17689618468284607,0.022234708070755005,0.027806155383586884,0.02637224644422531,0.07558852434158325,0.04023701325058937,0.01196383498609066,0.0015287729911506176,0.016499074175953865
61,I,0.02532428689301014,0.033742666244506836,8.371063449885696e-05,0.0001164669738500379,0.02815225161612034,0.0006114516290836036,0.002846161602064967,0.18359562754631042,0.008505729027092457,0.14641718566417694,0.02000684291124344,0.00019289842748548836,0.13020280003547668,0.0019144258694723248,0.004167333710938692,0.00822548009455204,0.04772598296403885,0.35441264510154724,0.0024494461249560118,0.0013066139072179794
62,N,0.026457438245415688,0.003909355495125055,0.16462324559688568,0.05584324523806572,0.002574631478637457,0.02023966610431671,0.05156191810965538,0.0029611908830702305,0.014419395476579666,0.017909370362758636,0.002516282955184579,0.5161552429199219,0.0004850226396229118,0.012278730981051922,0.019240446388721466,0.03663197532296181,0.026895053684711456,0.01031311322003603,0.0007548848516307771,0.014229762367904186
63,A,0.29670700430870056,0.013045846484601498,0.020600968971848488,0.021421710029244423,0.015285861678421497,0.011153481900691986,0.019554434344172478,0.10388293117284775,0.03576497361063957,0.0911954864859581,0.026880178600549698,0.030145224183797836,0.0059136394411325455,0.03378300741314888,0.0358939990401268,0.06335479021072388,0.041800469160079956,0.11074275523424149,0.005712933838367462,0.017160305753350258
64,P,0.09492769092321396,0.022294331341981888,0.005596016999334097,0.047417182475328445,0.005524227395653725,0.02412138134241104,0.015456349588930607,0.02572229504585266,0.09585019201040268,0.0619797483086586,0.009849564172327518,0.004005872178822756,0.062198705971241,0.1615881323814392,0.13987888395786285,0.0355108380317688,0.09168996661901474,0.061685409396886826,0.00015434813394676894,0.03454885631799698
65,D,0.026024559512734413,0.005670379847288132,0.45435747504234314,0.04101525992155075,0.033214833587408066,0.03131861984729767,0.00904264859855175,0.0005407321150414646,0.005725183989852667,0.007241426035761833,0.010262949392199516,0.19690321385860443,0.0025465558283030987,0.003394189989194274,0.009101105853915215,0.06675484031438828,0.0558050163090229,0.01793549954891205,0.0003909346996806562,0.022754590958356857
66,K,0.07414034754037857,0.015500701032578945,0.07489130645990372,0.08215299248695374,0.025733893737196922,0.059311557561159134,0.045966729521751404,0.027314864099025726,0.12153354287147522,0.022194674238562584,0.00903309229761362,0.11075060069561005,0.01882433332502842,0.017961984500288963,0.06335022300481796,0.09691351652145386,0.036876145750284195,0.02756638266146183,0.005716647021472454,0.06426646560430527
67,H,0.025844894349575043,0.03498896583914757,0.18377715349197388,0.10791219770908356,0.04047110676765442,0.04049260541796684,0.05344192683696747,0.007485094480216503,0.1173895001411438,0.03956099972128868,0.008423866704106331,0.09702315926551819,0.024418821558356285,0.03828183189034462,0.0464620478451252,0.05512956529855728,0.023143237456679344,0.02012268453836441,0.009638536721467972,0.02599180117249489
68,H,0.007051130756735802,0.005206878297030926,0.043789345771074295,0.021572377532720566,0.010775445029139519,0.6736963391304016,0.038070376962423325,0.0002829046861734241,0.025443516671657562,0.025468584150075912,0.001056416193023324,0.02749546989798546,0.004537218250334263,0.020952852442860603,0.020780960097908974,0.038349699229002,0.0050099194049835205,0.012705642729997635,0.0038997873198240995,0.013855166733264923
69,I,0.032673466950654984,0.03456425666809082,0.07031026482582092,0.07937388867139816,0.03368332237005234,0.01023821160197258,0.028139861300587654,0.02500644512474537,0.067069411277771,0.04410058259963989,0.027552569285035133,0.1567423939704895,0.009643757715821266,0.07362272590398788,0.0946434736251831,0.04521070793271065,0.03467169031500816,0.02247464656829834,0.06165129318833351,0.04862702637910843
70,T,0.02803199551999569,0.006065423600375652,0.004615307319909334,0.0007268482586368918,0.008220904506742954,0.01044799666851759,0.005449571646749973,0.00955286342650652,0.000572885328438133,0.0423433892428875,0.0008843917166814208,0.020595228299498558,0.00928790308535099,0.002803557552397251,0.008994299918413162,0.10321603715419769,0.6976848244667053,0.009348772466182709,0.00017544614092912525,0.030982354655861855
71,P,0.2976410686969757,0.017247607931494713,0.00010015201405622065,0.0018027363112196326,0.0008012161124497652,0.008473576046526432,0.00017526603187434375,0.011857283301651478,6.438343552872539e-05,0.029036931693553925,0.0009621747303754091,7.153715705499053e-05,0.5799660086631775,0.0,9.299829980591312e-05,0.014804613776504993,0.002861486282199621,0.03375480696558952,0.00019315032113809139,9.299829980591312e-05
72,L,0.014438883401453495,0.0008872257312759757,7.512798765674233e-05,0.00027904679882340133,0.016621172428131104,0.00011805826216004789,8.228303340729326e-05,0.0565570630133152,0.00013952339941170067,0.8720248341560364,0.01323325838893652,0.0004901206702925265,0.0,0.00011805826216004789,0.0006725743296556175,0.00021822891721967608,0.0008407179266214371,0.022155601531267166,0.00013236835366114974,0.0009158459142781794
73,L,0.021981598809361458,0.003909827210009098,0.013324891217052937,0.004671760369092226,0.026138249784708023,0.005480196792632341,0.6352807283401489,0.0442243292927742,0.0015489067882299423,0.06092962995171547,0.07167182117700577,0.007261618506163359,0.0001502403902122751,0.011446886695921421,0.005054515786468983,0.028903387486934662,0.015642885118722916,0.005802140571177006,0.00734747014939785,0.02922890894114971
74,S,0.040450725704431534,0.025612590834498405,0.01065641175955534,0.04593811556696892,0.029955284669995308,0.0020032194443047047,0.02168842777609825,0.08306922018527985,0.015117152594029903,0.3514934778213501,0.03127884119749069,0.02132355608046055,0.00012877839617431164,0.009887319058179855,0.020021462813019753,0.02230370230972767,0.02776247449219227,0.07734573632478714,0.04121981933712959,0.12274369597434998
75,A,0.8358601927757263,0.03338818624615669,0.0,0.00016813937691040337,0.00046506637590937316,0.012857296504080296,0.00047579867532476783,0.02009444497525692,0.0011483561247587204,0.01708582229912281,0.0036310949362814426,0.00011447787255747244,0.0002539977722335607,8.943583816289902e-05,7.512610318372026e-05,0.03440060093998909,0.006686223205178976,0.010521232150495052,0.0006010088254697621,0.022083496674895287
76,V,0.4150277078151703,0.09097656607627869,0.00015418541443068534,0.0012514118570834398,0.005790917202830315,0.002574537880718708,0.00022948527475818992,0.1162593886256218,0.00600247411057353,0.09620452672243118,0.008171827532351017,0.00023307098308578134,0.00027968516224063933,0.00030119941220618784,0.0047438908368349075,0.044853612780570984,0.03487817570567131,0.1672804206609726,0.00021155673312023282,0.004575362429022789
77,Y,0.06807789951562881,0.05250455066561699,0.01606115698814392,0.11990535259246826,0.04496905580163002,0.013571168296039104,0.03488168865442276,0.03613760322332382,0.08577357232570648,0.06970513612031937,0.032369859516620636,0.011037494987249374,0.00294503103941679,0.09000363945960999,0.10987258702516556,0.08806698024272919,0.03401893004775047,0.01746632717549801,0.033352747559547424,0.03927921503782272
78,E,0.10761294513940811,0.046201542019844055,0.007450099103152752,0.048839133232831955,0.015319151803851128,0.03844906762242317,0.10255634784698486,0.010860022157430649,0.09847245365381241,0.03483513370156288,0.007865410298109055,0.11032704263925552,0.0013297242112457752,0.05250771343708038,0.08267606049776077,0.07759032398462296,0.054562412202358246,0.00986546091735363,0.033778637647628784,0.05890132114291191
79,G,0.039578717201948166,0.024198293685913086,0.09099691361188889,0.012987107038497925,0.0013364808401092887,0.44894862174987793,0.032082803547382355,0.004536045249551535,0.0398220457136631,0.0038895951583981514,0.0013764300383627415,0.1342146396636963,0.015631014481186867,0.045788995921611786,0.03522789105772972,0.01936444453895092,0.008422008715569973,0.004826584365218878,0.02772834524512291,0.00904303602874279
80,H,0.02469189465045929,0.024883555248379707,0.09057310968637466,0.022558294236660004,0.0345643125474453,0.003956199623644352,0.22581076622009277,0.0015803101705387235,0.061802059412002563,0.018153676763176918,0.007243389263749123,0.18785077333450317,0.002176994690671563,0.05963952839374542,0.0735694020986557,0.10253934562206268,0.016642076894640923,0.004364838358014822,0.0041044666431844234,0.033295001834630966
81,V,0.08170676976442337,0.01479822862893343,0.03582176938652992,0.07662089914083481,0.026590511202812195,0.014049455523490906,0.02861979603767395,0.0649009570479393,0.06326233595609665,0.15014903247356415,0.015174424275755882,0.00848610233515501,0.07088752835988998,0.023953525349497795,0.03909177705645561,0.029516877606511116,0.06385557353496552,0.08565320819616318,0.026641152799129486,0.08022007346153259
82,S,0.05744042247533798,0.018739378079771996,0.14703649282455444,0.26823851466178894,0.006021046545356512,0.07884135842323303,0.03606480360031128,0.0052218567579984665,0.07955013960599899,0.016045276075601578,0.0022022926714271307,0.03110693208873272,0.024915922433137894,0.07112429291009903,0.04134451970458031,0.05953061208128929,0.0206957645714283,0.006129533983767033,0.024876143783330917,0.004874696955084801
83,C,0.113534115254879,0.13461065292358398,9.402710566064343e-05,0.0020071170292794704,0.030938535928726196,0.010798651725053787,0.0024266226682811975,0.24456089735031128,0.0005352312582544982,0.08868564665317535,0.06264013797044754,0.011977607384324074,0.0043107811361551285,0.0008968739421106875,0.0009655861067585647,0.017648164182901382,0.05643434822559357,0.21438904106616974,0.00028208133880980313,0.002263883361592889
84,V,0.17299610376358032,0.033860936760902405,0.0,0.0011712446575984359,0.03180854022502899,0.0036877889651805162,0.0001414196303812787,0.13450820744037628,0.00023569939367007464,0.0945662260055542,0.029545824974775314,0.00019218566012568772,0.0002937176905106753,0.0028827849309891462,0.0003154745791107416,0.012647991999983788,0.04234611615538597,0.43192094564437866,0.0001232889189850539,0.006755507085472345
85,K,0.019462505355477333,0.018153401091694832,0.03055907040834427,0.18854007124900818,0.004859280306845903,0.013780049048364162,0.024568377062678337,0.019321078434586525,0.24697835743427277,0.02024216577410698,0.006233658641576767,0.03631768003106117,0.001994480611756444,0.0949409082531929,0.16302885115146637,0.03745634853839874,0.041851457208395004,0.016340237110853195,0.0020706336945295334,0.013301373459398746
86,L,0.08790884912014008,0.012325949966907501,0.0025991518050432205,0.03256584331393242,0.08321654051542282,0.0006625289097428322,0.00952658336609602,0.130245178937912,0.02494676038622856,0.3668043911457062,0.03705429285764694,0.002155038993805647,0.001062958501279354,0.01750241219997406,0.006246700882911682,0.011768988333642483,0.039380427449941635,0.07011521607637405,0.006752698216587305,0.05715949833393097
87,L,0.0019077425822615623,0.0024147715885192156,0.0,0.0,0.010596543550491333,0.00010943074448732659,0.0,0.017392192035913467,0.0,0.9435592889785767,0.013135336339473724,0.0,8.75445912242867e-05,9.848766785580665e-05,0.00013861227489542216,0.0002845199196599424,0.0003647691337391734,0.006051519885659218,0.002699291566386819,0.0011599658755585551
88,L,0.024020085111260414,0.021593591198325157,0.0006577841704711318,0.00416962057352066,0.002978300442919135,0.001969698118045926,0.0017650540685281157,0.12019909173250198,0.005656943656504154,0.6126784086227417,0.03408418223261833,0.0017102387500926852,5.1160990551579744e-05,0.00521842110902071,0.01113847829401493,0.0019331545336171985,0.012194586917757988,0.13359230756759644,0.0021816508378833532,0.002207231242209673
89,S,0.07932300865650177,0.0017682068282738328,0.13933910429477692,0.21665863692760468,0.0019483360229060054,0.0190128181129694,0.033356983214616776,0.003253353526815772,0.10827969014644623,0.017994537949562073,0.005087730474770069,0.06047561392188072,0.0016395431011915207,0.09175559878349304,0.08414973318576813,0.09880636632442474,0.028967712074518204,0.0029519128147512674,0.0007058123010210693,0.004525286145508289
90,K,0.14771179854869843,0.014285237528383732,0.006643692497164011,0.03023974411189556,0.01502713467925787,0.016165947541594505,0.16580668091773987,0.006695625372231007,0.10476706176996231,0.05174364522099495,0.011395546607673168,0.09697713702917099,0.00043401005677878857,0.046361178159713745,0.13959915935993195,0.059689369052648544,0.012938693165779114,0.00716302078217268,0.0014355718158185482,0.06491974741220474
91,G,0.00868851039558649,0.008852014318108559,0.02461300976574421,0.024316420778632164,0.0009049739455804229,0.7253708243370056,0.007106706965714693,0.0005095231463201344,0.045351359993219376,0.002216805936768651,0.003965915180742741,0.06038229539990425,0.009753185324370861,0.019590023905038834,0.023209920153021812,0.020164187997579575,0.008551623672246933,0.004262503236532211,0.0001863181678345427,0.002003870904445648
92,A,0.7204478979110718,0.011716281063854694,0.0013772385427728295,0.0029300455935299397,0.0042760721407830715,0.028305567800998688,0.0012250790605321527,0.028605984523892403,0.0018688307609409094,0.01580898091197014,0.004022473003715277,0.0018610276747494936,0.045491788536310196,0.007022745907306671,0.0019546642433851957,0.04859740287065506,0.016780460253357887,0.05570988357067108,0.00027310679433867335,0.0017244742484763265
93,D,0.019029708579182625,0.014801320619881153,0.4068164527416229,0.02186826430261135,0.00215149181894958,0.0037729626055806875,0.02028605341911316,0.0008637375431135297,0.03192295506596565,0.026190878823399544,0.0026501037646085024,0.18555045127868652,0.03844809904694557,0.018786292523145676,0.03654395043849945,0.10556050390005112,0.04228780418634415,0.004377578850835562,0.00028660381212830544,0.017804771661758423
94,K,0.04234113171696663,0.013104830868542194,0.009056054055690765,0.000461353687569499,0.01513319555670023,0.002099954755976796,0.021639874204993248,0.18981920182704926,0.009660586714744568,0.13941630721092224,0.027259638532996178,0.00047328523942269385,0.20318254828453064,0.014536618255078793,0.012373028323054314,0.00608111871406436,0.06984338164329529,0.21787825226783752,0.0007755514234304428,0.004864099435508251
95,T,0.023468084633350372,0.011786379851400852,0.1378692388534546,0.0808340460062027,0.019276905804872513,0.04253982752561569,0.01942763850092888,0.002181422431021929,0.033814139664173126,0.018008248880505562,0.005610567983239889,0.32485607266426086,0.005401218309998512,0.020553939044475555,0.023807231336832047,0.12095798552036285,0.09176209568977356,0.00822325050830841,0.0021395524963736534,0.00748215289786458
96,V,0.22400783002376556,0.009179463610053062,0.026253774762153625,0.017793186008930206,0.014824110083281994,0.014739036560058594,0.045727167278528214,0.1660555601119995,0.02578161470592022,0.11801863461732864,0.03170275315642357,0.006882470566779375,0.008877451531589031,0.03840656951069832,0.03937215358018875,0.04443404823541641,0.05517461523413658,0.10186311602592468,0.0003955931751988828,0.010510868392884731
97,K,0.052859120070934296,0.012183387763798237,0.004050877410918474,0.04745941609144211,0.015175413340330124,0.019177962094545364,0.00592254102230072,0.023742888122797012,0.17995211482048035,0.06117616221308708,0.0366072803735733,0.008259924128651619,0.07242810726165771,0.0661277249455452,0.15115220844745636,0.051259856671094894,0.059308890253305435,0.12865270674228668,0.00016256234084721655,0.004340853542089462
98,G,0.028105339035391808,0.005058329086750746,0.34365472197532654,0.011137356050312519,0.0012690986040979624,0.02086108922958374,0.022346973419189453,0.012420004233717918,0.0034369537606835365,0.003771164920181036,0.002967251930385828,0.3860950171947479,0.004873157944530249,0.001729767769575119,0.0045976596884429455,0.03716064989566803,0.10184403508901596,0.004710568580776453,0.0,0.003960852045565844
99,P,0.07059524208307266,0.007774620316922665,0.04022826626896858,0.07543445378541946,0.01737332157790661,0.0362190380692482,0.03647225350141525,0.0215701162815094,0.17293137311935425,0.04424687474966049,0.0036950549110770226,0.11501092463731766,0.059824250638484955,0.02794736810028553,0.06197657436132431,0.10787402838468552,0.04714946076273918,0.024135084822773933,0.0005345637910068035,0.029007118195295334
100,D,0.03905586525797844,0.008413898758590221,0.16685712337493896,0.09239108115434647,0.05246551334857941,0.014390598982572556,0.02697099559009075,0.003210832830518484,0.06098054349422455,0.05456393212080002,0.013505724258720875,0.101148821413517,0.001729298965074122,0.07883985340595245,0.10876885801553726,0.08044780045747757,0.029307067394256592,0.014724323526024818,0.006022207904607058,0.04620565474033356
101,G,0.00644685560837388,0.002263312228024006,0.02771277353167534,0.027902238070964813,0.007097173947840929,0.746201753616333,0.005443214904516935,0.0025807905476540327,0.025889834389090538,0.01009273435920477,0.004444694612175226,0.04742714762687683,0.002155779395252466,0.013718130998313427,0.038169071078300476,0.01156747154891491,0.017077254131436348,0.0007629718165844679,0.0007168862503021955,0.0023298803716897964
102,L,0.01355781964957714,0.026787249371409416,0.04856003448367119,0.06789856404066086,0.02333654835820198,0.0054471055045723915,0.0458390899002552,0.0378013513982296,0.12019599229097366,0.08711720257997513,0.03369386866688728,0.09696890413761139,0.0021527796052396297,0.09464411437511444,0.11999791860580444,0.034595638513565063,0.04965988174080849,0.01077953539788723,0.0324324332177639,0.04853397235274315
103,T,0.02936680056154728,0.007231920026242733,0.008776970207691193,0.003919548820704222,0.009584734216332436,0.01705518737435341,0.0010734034003689885,0.011308684945106506,0.05519353970885277,0.023463081568479538,0.00843543279916048,0.06677328050136566,0.003317792434245348,0.0054320720955729485,0.03252195566892624,0.12125121802091599,0.5904857516288757,0.00259134778752923,5.421229616331402e-06,0.0022118615452200174
104,A,0.22905413806438446,0.023020019754767418,0.0,0.0006799625116400421,0.028975175693631172,0.001091230078600347,0.00010418779856991023,0.02725333534181118,0.00025772771914489567,0.024363495409488678,0.0005428732838481665,0.0003728826704900712,0.5554416179656982,0.00019192488980479538,0.0002906291338149458,0.012617691420018673,0.0034985167440027,0.09017728269100189,9.87042294582352e-05,0.001968601020053029
105,L,0.029240915551781654,0.018964501097798347,0.00014592395746149123,0.016915952786803246,0.041571490466594696,0.000897993566468358,0.003805247601121664,0.06366774439811707,0.0046976287849247456,0.6240774393081665,0.030615966767072678,0.0013357653515413404,0.000129086576635018,0.0019755857065320015,0.012656096369028091,0.07279360294342041,0.0024245826061815023,0.04896309971809387,0.004596604499965906,0.02052476443350315
106,E,0.03563597798347473,0.002682466059923172,0.24532318115234375,0.05129924789071083,0.008222341537475586,0.002320916159078479,0.3574444353580475,0.008892958052456379,0.024381283670663834,0.017645960673689842,0.04476802423596382,0.0256233811378479,0.0005773133598268032,0.06381936371326447,0.014835203066468239,0.02542511187493801,0.015680763870477676,0.004828438628464937,0.00732429837808013,0.04326934367418289
107,A,0.10955911129713058,0.04764305800199509,0.001058181282132864,0.01080589834600687,0.018823178485035896,0.001462780055589974,0.024394191801548004,0.07618282735347748,0.01474606804549694,0.3094184398651123,0.05583462491631508,0.0027325975243002176,9.959353337762877e-05,0.008758006617426872,0.009623224847018719,0.007768295705318451,0.024319496005773544,0.140594944357872,0.00728900171816349,0.12888647615909576
108,T,0.6198940873146057,0.09044405072927475,0.0,0.0,0.0027619146276265383,0.005599972326308489,0.0,0.0369916595518589,0.00024227322137448937,0.1375419646501541,0.00775274308398366,0.0,0.0,0.00042916968232020736,0.0004637801612261683,0.021209290251135826,0.03148167207837105,0.037580035626888275,0.0004707022453658283,0.007136676926165819
109,D,0.1782432347536087,0.0011687329970300198,0.07175103574991226,0.11050255596637726,0.00036666131927631795,0.020464284345507622,0.015766436234116554,0.019249718636274338,0.08435501903295517,0.005385338328778744,0.00355203147046268,0.014414372853934765,0.0013978963252156973,0.08284254372119904,0.21419896185398102,0.044297270476818085,0.08570708334445953,0.04296812415122986,0.0008020716486498713,0.002566629322245717
110,N,0.04099029302597046,0.0,0.13667508959770203,0.25413981080055237,0.015009380877017975,0.007382331416010857,0.002039317972958088,0.0009380863048136234,0.09678603708744049,0.0016314544482156634,0.008320417255163193,0.1669793576002121,0.0,0.08618158102035522,0.02235092595219612,0.14988987147808075,0.009217717684805393,0.000856513564940542,0.0,0.0006117954035289586
111,Q,0.02568291686475277,0.0,0.10416939109563828,0.20304535329341888,0.0,0.06731146574020386,0.013331590220332146,0.004313161596655846,0.09933342039585114,0.022350018844008446,0.0028100900817662477,0.023983793333172798,0.018625017255544662,0.24807214736938477,0.056986015290021896,0.0840413048863411,0.009345184080302715,0.0026793882716447115,0.0,0.013919749297201633
112,A,0.08818443864583969,0.0020893372129648924,0.14697405695915222,0.20108069479465485,0.0036743516102433205,0.046685878187417984,0.06966859102249146,0.005043227691203356,0.02536023035645485,0.006700288038700819,0.01109510101377964,0.10468299686908722,0.0029538904782384634,0.14978386461734772,0.03501440957188606,0.03811239078640938,0.05021613836288452,0.010951008647680283,0.0,0.0017291066469624639
113,I,0.01061293575912714,0.009228639304637909,0.011766515672206879,0.0,0.005921710282564163,0.0,0.16142429411411285,0.3052372634410858,0.0032300238963216543,0.10512958467006683,0.19003306329250336,0.012151041999459267,0.0,0.0019226332660764456,0.0016919173067435622,0.0025378759019076824,0.015457971021533012,0.12773975729942322,0.0024609705433249474,0.033453818410634995
114,K,0.05304054170846939,0.0017736486624926329,0.0,0.08141891658306122,0.003462837776169181,0.0,0.024577703326940536,0.002871621632948518,0.38310810923576355,0.0054054055362939835,0.05236486345529556,0.00320945936255157,0.0,0.01756756752729416,0.25456079840660095,0.07601351290941238,0.031503379344940186,0.0045608109794557095,0.002449324354529381,0.002111486392095685
115,A,0.07624297589063644,0.0033284793607890606,0.20522154867649078,0.08612440526485443,0.0028084043879061937,0.015290201641619205,0.009257333353161812,0.0,0.16767214238643646,0.0,0.002600374398753047,0.0651133731007576,0.0,0.13677969574928284,0.030060328543186188,0.15903890132904053,0.03276471793651581,0.0057208240032196045,0.0,0.0019762846641242504
116,L,0.0,0.0,0.0,0.0,0.02042766660451889,0.0,0.0,0.11719030141830444,0.0,0.654760479927063,0.14072392880916595,0.0,0.0,0.0,0.0,0.0,0.0,0.02102496661245823,0.0,0.045872654765844345
117,L,0.0,0.0,0.0,0.0,0.0,0.0,0.0,0.10997512936592102,0.0,0.8618403077125549,0.02818458154797554,0.0,0.0,0.0,0.0,0.0,0.0,0.0,0.0,0.0
118,Q,0.0,0.0,0.0,0.0,0.0,0.0,0.0,0.0,0.0,0.0,0.0,0.0,0.0,1.0,0.0,0.0,0.0,0.0,0.0,0.0
